"Angle","Counts"
3.00243322,24852
3.01329966,24703
3.0241661,24341
3.03503254,23963
3.04589898,23641
3.05676542,23193
3.06763186,22976
3.0784983,23024
3.08936474,22738
3.10023118,22475
3.11109762,22316
3.12196406,21886
3.1328305,21764
3.14369694,21489
3.15456338,21560
3.16542982,20973
3.17629626,20710
3.1871627,20557
3.19802914,20435
3.20889558,20057
3.21976202,19632
3.23062846,19931
3.2414949,19480
3.25236134,19359
3.26322778,19290
3.27409422,18629
3.28496066,18636
3.2958271,18444
3.30669354,18419
3.31755998,18458
3.32842642,17999
3.33929286,17615
3.3501593,17616
3.36102574,17327
3.37189218,17275
3.38275862,17261
3.39362506,16930
3.4044915,16919
3.41535794,16712
3.42622438,16533
3.43709082,16351
3.44795726,16457
3.4588237,16021
3.46969014,16177
3.48055658,15876
3.49142302,15745
3.50228946,15671
3.5131559,15532
3.52402234,15485
3.53488878,15407
3.54575522,15157
3.55662166,14992
3.5674881,14804
3.57835454,14863
3.58922098,14715
3.60008742,14438
3.61095386,14547
3.6218203,14335
3.63268674,14341
3.64355318,14032
3.65441962,14257
3.66528606,13758
3.6761525,13912
3.68701894,13714
3.69788538,13478
3.70875182,13574
3.71961826,13408
3.7304847,13465
3.74135114,13351
3.75221758,13247
3.76308402,13071
3.77395046,13165
3.7848169,13109
3.79568334,12959
3.80654978,12755
3.81741622,12651
3.82828266,12706
3.8391491,12362
3.85001554,12373
3.86088198,12420
3.87174842,12159
3.88261486,12202
3.8934813,12002
3.90434774,12038
3.91521418,11803
3.92608062,12038
3.93694706,11677
3.9478135,11861
3.95867994,11989
3.96954638,11583
3.98041282,11562
3.99127926,11415
4.0021457,11504
4.01301214,11566
4.02387858,11286
4.03474502,11343
4.04561146,11369
4.0564779,11068
4.06734434,11219
4.07821078,10917
4.08907722,10955
4.09994366,10732
4.1108101,10991
4.12167654,10793
4.13254298,10667
4.14340942,10661
4.15427586,10781
4.1651423,10600
4.17600874,10576
4.18687518,10399
4.19774162,10328
4.20860806,10457
4.2194745,10260
4.23034094,10257
4.24120738,10186
4.25207382,10459
4.26294026,10171
4.2738067,10016
4.28467314,10140
4.29553958,9991
4.30640602,9839
4.31727246,9995
4.3281389,9838
4.33900534,9866
4.34987178,9619
4.36073822,9736
4.37160466,9516
4.3824711,9499
4.39333754,9782
4.40420398,9529
4.41507042,9682
4.42593686,9440
4.4368033,9373
4.44766974,9549
4.45853618,9734
4.46940262,9467
4.48026906,9344
4.4911355,9364
4.50200194,9384
4.51286838,9187
4.52373482,9153
4.53460126,9210
4.5454677,9152
4.55633414,9169
4.56720058,9198
4.57806702,9088
4.58893346,9238
4.5997999,9014
4.61066634,9254
4.62153278,8948
4.63239922,9056
4.64326566,9060
4.6541321,8980
4.66499854,8958
4.67586498,8991
4.68673142,8966
4.69759786,8822
4.7084643,8785
4.71933074,8903
4.73019718,8844
4.74106362,8878
4.75193006,8539
4.7627965,8736
4.77366294,8812
4.78452938,8867
4.79539582,8718
4.80626226,8676
4.8171287,8863
4.82799514,8628
4.83886158,8703
4.84972802,8681
4.86059446,8584
4.8714609,8558
4.88232734,8498
4.89319378,8711
4.90406022,8604
4.91492666,8471
4.9257931,8475
4.93665954,8340
4.94752598,8568
4.95839242,8511
4.96925886,8396
4.9801253,8521
4.99099174,8495
5.00185818,8341
5.01272462,8621
5.02359106,8372
5.0344575,8320
5.04532394,8470
5.05619038,8393
5.06705682,8517
5.07792326,8503
5.0887897,8487
5.09965614,8309
5.11052258,8509
5.12138902,8421
5.13225546,8396
5.1431219,8329
5.15398834,8444
5.16485478,8411
5.17572122,8443
5.18658766,8370
5.1974541,8429
5.20832054,8503
5.21918698,8277
5.23005342,8533
5.24091986,8378
5.2517863,8505
5.26265274,8554
5.27351918,8336
5.28438562,8409
5.29525206,8476
5.3061185,8577
5.31698494,8352
5.32785138,8371
5.33871782,8335
5.34958426,8261
5.3604507,8336
5.37131714,8477
5.38218358,8464
5.39305002,8264
5.40391646,8363
5.4147829,8383
5.42564934,8498
5.43651578,8551
5.44738222,8466
5.45824866,8501
5.4691151,8497
5.47998154,8414
5.49084798,8578
5.50171442,8378
5.51258086,8407
5.5234473,8353
5.53431374,8509
5.54518018,8396
5.55604662,8283
5.56691306,8373
5.5777795,8552
5.58864594,8525
5.59951238,8348
5.61037882,8672
5.62124526,8504
5.6321117,8538
5.64297814,8472
5.65384458,8524
5.66471102,8571
5.67557746,8636
5.6864439,8569
5.69731034,8514
5.70817678,8430
5.71904322,8491
5.72990966,8463
5.7407761,8632
5.75164254,8538
5.76250898,8627
5.77337542,8569
5.78424186,8470
5.7951083,8633
5.80597474,8494
5.81684118,8510
5.82770762,8521
5.83857406,8635
5.8494405,8503
5.86030694,8461
5.87117338,8532
5.88203982,8616
5.89290626,8660
5.9037727,8665
5.91463914,8686
5.92550558,8589
5.93637202,8558
5.94723846,8761
5.9581049,8680
5.96897134,8664
5.97983778,8687
5.99070422,8572
6.00157066,8982
6.0124371,8659
6.02330354,8670
6.03416998,8814
6.04503642,8802
6.05590286,8784
6.0667693,8931
6.07763574,8911
6.08850218,8673
6.09936862,8970
6.11023506,9014
6.1211015,8798
6.13196794,8938
6.14283438,8987
6.15370082,8999
6.16456726,8991
6.1754337,8800
6.18630014,9074
6.19716658,8899
6.20803302,9013
6.21889946,8968
6.2297659,8922
6.24063234,9042
6.25149878,9065
6.26236522,9043
6.27323166,9067
6.2840981,8947
6.29496454,9091
6.30583098,9018
6.31669742,8820
6.32756386,8991
6.3384303,9115
6.34929674,9205
6.36016318,9141
6.37102962,9168
6.38189606,9144
6.3927625,9139
6.40362894,8962
6.41449538,9159
6.42536182,9125
6.43622826,9263
6.4470947,9184
6.45796114,9112
6.46882758,9146
6.47969402,9138
6.49056046,9400
6.5014269,9496
6.51229334,9285
6.52315978,9245
6.53402622,9195
6.54489266,9220
6.5557591,9031
6.56662554,9186
6.57749198,9400
6.58835842,9351
6.59922486,9266
6.6100913,9372
6.62095774,9425
6.63182418,9470
6.64269062,9243
6.65355706,9401
6.6644235,9261
6.67528994,9274
6.68615638,9630
6.69702282,9397
6.70788926,9502
6.7187557,9503
6.72962214,9378
6.74048858,9466
6.75135502,9260
6.76222146,9437
6.7730879,9439
6.78395434,9457
6.79482078,9382
6.80568722,9399
6.81655366,9591
6.8274201,9431
6.83828654,9440
6.84915298,9501
6.86001942,9526
6.87088586,9538
6.8817523,9458
6.89261874,9587
6.90348518,9365
6.91435162,9612
6.92521806,9649
6.9360845,9580
6.94695094,9663
6.95781738,9581
6.96868382,9576
6.97955026,9493
6.9904167,9766
7.00128314,9665
7.01214958,9602
7.02301602,9722
7.03388246,9738
7.0447489,9709
7.05561534,9795
7.06648178,9618
7.07734822,9854
7.08821466,9838
7.0990811,9695
7.10994754,9747
7.12081398,9923
7.13168042,9726
7.14254686,9657
7.1534133,9921
7.16427974,9837
7.17514618,9761
7.18601262,9809
7.19687906,9654
7.2077455,9762
7.21861194,9844
7.22947838,9791
7.24034482,9814
7.25121126,9893
7.2620777,9777
7.27294414,9931
7.28381058,10031
7.29467702,9816
7.30554346,9825
7.3164099,10153
7.32727634,9953
7.33814278,9744
7.34900922,9836
7.35987566,9918
7.3707421,9938
7.38160854,9940
7.39247498,10043
7.40334142,9776
7.41420786,9980
7.4250743,9990
7.43594074,10100
7.44680718,10077
7.45767362,10021
7.46854006,10060
7.4794065,10109
7.49027294,10125
7.50113938,10112
7.51200582,10117
7.52287226,10121
7.5337387,10114
7.54460514,10011
7.55547158,10094
7.56633802,10172
7.57720446,10218
7.5880709,10315
7.59893734,10203
7.60980378,10192
7.62067022,10105
7.63153666,10170
7.6424031,10416
7.65326954,10237
7.66413598,10317
7.67500242,10362
7.68586886,10393
7.6967353,10266
7.70760174,10327
7.71846818,10332
7.72933462,10183
7.74020106,10297
7.7510675,10261
7.76193394,10447
7.77280038,10310
7.78366682,10497
7.79453326,10482
7.8053997,10507
7.81626614,10489
7.82713258,10175
7.83799902,10352
7.84886546,10458
7.8597319,10433
7.87059834,10321
7.88146478,10390
7.89233122,10451
7.90319766,10400
7.9140641,10351
7.92493054,10563
7.93579698,10722
7.94666342,10680
7.95752986,10529
7.9683963,10577
7.97926274,10693
7.99012918,10618
8.00099562,10562
8.01186206,10793
8.0227285,10690
8.03359494,10594
8.04446138,10624
8.05532782,10639
8.06619426,10672
8.0770607,10815
8.08792714,10716
8.09879358,10798
8.10966002,10841
8.12052646,10915
8.1313929,10615
8.14225934,10638
8.15312578,10783
8.16399222,10725
8.17485866,10996
8.1857251,10833
8.19659154,10909
8.20745798,10994
8.21832442,10924
8.22919086,10646
8.2400573,10966
8.25092374,10847
8.26179018,11078
8.27265662,10886
8.28352306,11037
8.2943895,10779
8.30525594,10926
8.31612238,11113
8.32698882,10998
8.33785526,11093
8.3487217,10981
8.35958814,11046
8.37045458,10887
8.38132102,11130
8.39218746,10964
8.4030539,11212
8.41392034,11224
8.42478678,11079
8.43565322,11212
8.44651966,11182
8.4573861,11057
8.46825254,11087
8.47911898,11325
8.48998542,11164
8.50085186,11190
8.5117183,11104
8.52258474,11110
8.53345118,11376
8.54431762,11295
8.55518406,11376
8.5660505,11294
8.57691694,11359
8.58778338,11403
8.59864982,11425
8.60951626,11295
8.6203827,11502
8.63124914,11444
8.64211558,11684
8.65298202,11368
8.66384846,11444
8.6747149,11559
8.68558134,11475
8.69644778,11351
8.70731422,11611
8.71818066,11534
8.7290471,11588
8.73991354,11459
8.75077998,11498
8.76164642,11640
8.77251286,11619
8.7833793,11620
8.79424574,11882
8.80511218,11591
8.81597862,11747
8.82684506,11719
8.8377115,11743
8.84857794,11760
8.85944438,11752
8.87031082,11798
8.88117726,11772
8.8920437,11922
8.90291014,11767
8.91377658,11757
8.92464302,11844
8.93550946,12014
8.9463759,12002
8.95724234,11896
8.96810878,11990
8.97897522,11907
8.98984166,12020
9.0007081,12028
9.01157454,11992
9.02244098,12043
9.03330742,12233
9.04417386,12084
9.0550403,12165
9.06590674,12133
9.07677318,12177
9.08763962,12167
9.09850606,12222
9.1093725,12087
9.12023894,12294
9.13110538,12368
9.14197182,12320
9.15283826,12509
9.1637047,12217
9.17457114,12397
9.18543758,12443
9.19630402,12362
9.20717046,12685
9.2180369,12538
9.22890334,12589
9.23976978,12411
9.25063622,12725
9.26150266,12605
9.2723691,12546
9.28323554,12725
9.29410198,12558
9.30496842,12683
9.31583486,13040
9.3267013,12622
9.33756774,12899
9.34843418,13057
9.35930062,12858
9.37016706,12904
9.3810335,13028
9.39189994,13236
9.40276638,13024
9.41363282,13161
9.42449926,13255
9.4353657,13277
9.44623214,13325
9.45709858,13357
9.46796502,13524
9.47883146,13494
9.4896979,13665
9.50056434,13607
9.51143078,13518
9.52229722,13707
9.53316366,13659
9.5440301,13994
9.55489654,13726
9.56576298,14044
9.57662942,13818
9.58749586,14000
9.5983623,14053
9.60922874,14279
9.62009518,14495
9.63096162,14512
9.64182806,14528
9.6526945,14720
9.66356094,14735
9.67442738,14732
9.68529382,14654
9.69616026,15021
9.7070267,15116
9.71789314,15077
9.72875958,15221
9.73962602,15171
9.75049246,15386
9.7613589,15228
9.77222534,15600
9.78309178,15523
9.79395822,15496
9.80482466,15741
9.8156911,15645
9.82655754,15675
9.83742398,15913
9.84829042,15509
9.85915686,15651
9.8700233,15616
9.88088974,15570
9.89175618,15360
9.90262262,15279
9.91348906,15351
9.9243555,15322
9.93522194,15166
9.94608838,14703
9.95695482,14693
9.96782126,14608
9.9786877,14369
9.98955414,14439
10.00042058,14296
10.01128702,14137
10.02215346,13901
10.0330199,13785
10.04388634,13936
10.05475278,13697
10.06561922,13541
10.07648566,13435
10.0873521,13504
10.09821854,13399
10.10908498,13208
10.11995142,13236
10.13081786,13339
10.1416843,12964
10.15255074,13110
10.16341718,12902
10.17428362,12926
10.18515006,12802
10.1960165,12825
10.20688294,12699
10.21774938,12692
10.22861582,12708
10.23948226,12641
10.2503487,12410
10.26121514,12614
10.27208158,12352
10.28294802,12239
10.29381446,12395
10.3046809,12161
10.31554734,12368
10.32641378,12024
10.33728022,11909
10.34814666,11966
10.3590131,11954
10.36987954,11844
10.38074598,12166
10.39161242,11866
10.40247886,11739
10.4133453,11807
10.42421174,11540
10.43507818,11656
10.44594462,11585
10.45681106,11455
10.4676775,11496
10.47854394,11429
10.48941038,11304
10.50027682,11266
10.51114326,11306
10.5220097,11102
10.53287614,10941
10.54374258,11286
10.55460902,11041
10.56547546,10957
10.5763419,10912
10.58720834,10756
10.59807478,10841
10.60894122,10807
10.61980766,10735
10.6306741,10587
10.64154054,10450
10.65240698,10310
10.66327342,10283
10.67413986,10205
10.6850063,10178
10.69587274,10099
10.70673918,10100
10.71760562,10105
10.72847206,9843
10.7393385,9932
10.75020494,9802
10.76107138,9882
10.77193782,9658
10.78280426,9598
10.7936707,9439
10.80453714,9394
10.81540358,9448
10.82627002,9378
10.83713646,9218
10.8480029,8978
10.85886934,9063
10.86973578,8998
10.88060222,9122
10.89146866,8897
10.9023351,8834
10.91320154,8842
10.92406798,8814
10.93493442,8847
10.94580086,8624
10.9566673,8564
10.96753374,8640
10.97840018,8550
10.98926662,8456
11.00013306,8452
11.0109995,8474
11.02186594,8255
11.03273238,8244
11.04359882,7986
11.05446526,8016
11.0653317,7962
11.07619814,7800
11.08706458,7791
11.09793102,7898
11.10879746,7801
11.1196639,7853
11.13053034,7857
11.14139678,7642
11.15226322,7678
11.16312966,7509
11.1739961,7495
11.18486254,7441
11.19572898,7380
11.20659542,7302
11.21746186,7279
11.2283283,7367
11.23919474,7176
11.25006118,7136
11.26092762,6975
11.27179406,7032
11.2826605,7012
11.29352694,6961
11.30439338,6861
11.31525982,6850
11.32612626,6857
11.3369927,6829
11.34785914,6691
11.35872558,6759
11.36959202,6792
11.38045846,6582
11.3913249,6574
11.40219134,6510
11.41305778,6577
11.42392422,6487
11.43479066,6490
11.4456571,6273
11.45652354,6321
11.46738998,6352
11.47825642,6245
11.48912286,6114
11.4999893,6266
11.51085574,6163
11.52172218,6004
11.53258862,6019
11.54345506,6087
11.5543215,5996
11.56518794,5995
11.57605438,5968
11.58692082,5929
11.59778726,5822
11.6086537,6001
11.61952014,5807
11.63038658,5786
11.64125302,5648
11.65211946,5753
11.6629859,5685
11.67385234,5655
11.68471878,5603
11.69558522,5528
11.70645166,5455
11.7173181,5444
11.72818454,5561
11.73905098,5497
11.74991742,5426
11.76078386,5250
11.7716503,5336
11.78251674,5230
11.79338318,5224
11.80424962,5234
11.81511606,5183
11.8259825,5209
11.83684894,5137
11.84771538,5251
11.85858182,5111
11.86944826,5261
11.8803147,5054
11.89118114,4984
11.90204758,5054
11.91291402,4939
11.92378046,4759
11.9346469,5079
11.94551334,4892
11.95637978,4913
11.96724622,5026
11.97811266,4797
11.9889791,5014
11.99984554,4820
12.01071198,4587
12.02157842,4741
12.03244486,4681
12.0433113,4790
12.05417774,4601
12.06504418,4787
12.07591062,4589
12.08677706,4693
12.0976435,4630
12.10850994,4624
12.11937638,4575
12.13024282,4692
12.14110926,4565
12.1519757,4354
12.16284214,4501
12.17370858,4525
12.18457502,4406
12.19544146,4517
12.2063079,4380
12.21717434,4303
12.22804078,4443
12.23890722,4441
12.24977366,4342
12.2606401,4365
12.27150654,4247
12.28237298,4221
12.29323942,4296
12.30410586,4422
12.3149723,4307
12.32583874,4293
12.33670518,4273
12.34757162,4245
12.35843806,4184
12.3693045,4278
12.38017094,4318
12.39103738,4181
12.40190382,4179
12.41277026,4226
12.4236367,4179
12.43450314,4142
12.44536958,3965
12.45623602,4131
12.46710246,4102
12.4779689,3921
12.48883534,3921
12.49970178,3856
12.51056822,4016
12.52143466,3974
12.5323011,3958
12.54316754,4072
12.55403398,4040
12.56490042,4011
12.57576686,4029
12.5866333,3974
12.59749974,3955
12.60836618,3837
12.61923262,3956
12.63009906,3932
12.6409655,3835
12.65183194,3804
12.66269838,3864
12.67356482,3927
12.68443126,3833
12.6952977,3788
12.70616414,3815
12.71703058,3788
12.72789702,3918
12.73876346,3717
12.7496299,3797
12.76049634,3774
12.77136278,3784
12.78222922,3765
12.79309566,3753
12.8039621,3636
12.81482854,3726
12.82569498,3700
12.83656142,3748
12.84742786,3755
12.8582943,3758
12.86916074,3744
12.88002718,3722
12.89089362,3650
12.90176006,3760
12.9126265,3663
12.92349294,3545
12.93435938,3583
12.94522582,3734
12.95609226,3572
12.9669587,3640
12.97782514,3748
12.98869158,3586
12.99955802,3653
13.01042446,3546
13.0212909,3613
13.03215734,3558
13.04302378,3489
13.05389022,3674
13.06475666,3616
13.0756231,3438
13.08648954,3544
13.09735598,3627
13.10822242,3496
13.11908886,3536
13.1299553,3595
13.14082174,3484
13.15168818,3456
13.16255462,3582
13.17342106,3451
13.1842875,3412
13.19515394,3439
13.20602038,3388
13.21688682,3459
13.22775326,3445
13.2386197,3517
13.24948614,3519
13.26035258,3475
13.27121902,3432
13.28208546,3458
13.2929519,3379
13.30381834,3355
13.31468478,3417
13.32555122,3395
13.33641766,3444
13.3472841,3482
13.35815054,3440
13.36901698,3419
13.37988342,3405
13.39074986,3390
13.4016163,3334
13.41248274,3371
13.42334918,3314
13.43421562,3328
13.44508206,3335
13.4559485,3345
13.46681494,3381
13.47768138,3303
13.48854782,3314
13.49941426,3378
13.5102807,3298
13.52114714,3325
13.53201358,3300
13.54288002,3473
13.55374646,3257
13.5646129,3310
13.57547934,3341
13.58634578,3292
13.59721222,3362
13.60807866,3347
13.6189451,3273
13.62981154,3246
13.64067798,3345
13.65154442,3133
13.66241086,3269
13.6732773,3266
13.68414374,3339
13.69501018,3228
13.70587662,3264
13.71674306,3361
13.7276095,3364
13.73847594,3295
13.74934238,3195
13.76020882,3373
13.77107526,3213
13.7819417,3413
13.79280814,3281
13.80367458,3295
13.81454102,3364
13.82540746,3235
13.8362739,3264
13.84714034,3268
13.85800678,3174
13.86887322,3279
13.87973966,3180
13.8906061,3175
13.90147254,3280
13.91233898,3247
13.92320542,3172
13.93407186,3313
13.9449383,3024
13.95580474,3153
13.96667118,3167
13.97753762,3249
13.98840406,3257
13.9992705,3164
14.01013694,3144
14.02100338,3198
14.03186982,3204
14.04273626,3217
14.0536027,3187
14.06446914,3222
14.07533558,3239
14.08620202,3182
14.09706846,3127
14.1079349,3188
14.11880134,3210
14.12966778,3230
14.14053422,3318
14.15140066,3293
14.1622671,3267
14.17313354,3191
14.18399998,3146
14.19486642,3203
14.20573286,3211
14.2165993,3204
14.22746574,3194
14.23833218,3180
14.24919862,3207
14.26006506,3212
14.2709315,3217
14.28179794,3169
14.29266438,3050
14.30353082,3263
14.31439726,3244
14.3252637,3272
14.33613014,3248
14.34699658,3150
14.35786302,3236
14.36872946,3236
14.3795959,3235
14.39046234,3175
14.40132878,3169
14.41219522,3273
14.42306166,3064
14.4339281,3193
14.44479454,3219
14.45566098,3191
14.46652742,3176
14.47739386,3152
14.4882603,3247
14.49912674,3316
14.50999318,3299
14.52085962,3189
14.53172606,3279
14.5425925,3145
14.55345894,3126
14.56432538,3256
14.57519182,3181
14.58605826,3181
14.5969247,3352
14.60779114,3211
14.61865758,3218
14.62952402,3228
14.64039046,3194
14.6512569,3180
14.66212334,3316
14.67298978,3179
14.68385622,3349
14.69472266,3164
14.7055891,3216
14.71645554,3267
14.72732198,3292
14.73818842,3172
14.74905486,3177
14.7599213,3203
14.77078774,3242
14.78165418,3138
14.79252062,3184
14.80338706,3197
14.8142535,3286
14.82511994,3209
14.83598638,3153
14.84685282,3207
14.85771926,3044
14.8685857,3230
14.87945214,3193
14.89031858,3170
14.90118502,3156
14.91205146,3151
14.9229179,3020
14.93378434,3219
14.94465078,3116
14.95551722,3134
14.96638366,3140
14.9772501,3182
14.98811654,3079
14.99898298,3199
15.00984942,3151
15.02071586,3143
15.0315823,3173
15.04244874,3104
15.05331518,3099
15.06418162,3042
15.07504806,3015
15.0859145,3099
15.09678094,3030
15.10764738,3162
15.11851382,3068
15.12938026,3155
15.1402467,3098
15.15111314,3133
15.16197958,3105
15.17284602,3060
15.18371246,3131
15.1945789,3072
15.20544534,3103
15.21631178,3203
15.22717822,3228
15.23804466,3148
15.2489111,3121
15.25977754,3199
15.27064398,3251
15.28151042,3170
15.29237686,3212
15.3032433,3134
15.31410974,3193
15.32497618,3145
15.33584262,3150
15.34670906,3123
15.3575755,3038
15.36844194,3061
15.37930838,3139
15.39017482,3024
15.40104126,3052
15.4119077,3004
15.42277414,3118
15.43364058,3066
15.44450702,3133
15.45537346,3133
15.4662399,3166
15.47710634,3180
15.48797278,3163
15.49883922,3074
15.50970566,3135
15.5205721,3122
15.53143854,3008
15.54230498,3134
15.55317142,3003
15.56403786,3062
15.5749043,3071
15.58577074,3028
15.59663718,3090
15.60750362,3134
15.61837006,3166
15.6292365,3127
15.64010294,3055
15.65096938,3117
15.66183582,3095
15.67270226,3043
15.6835687,3130
15.69443514,3104
15.70530158,3059
15.71616802,3052
15.72703446,3006
15.7379009,3127
15.74876734,3099
15.75963378,3155
15.77050022,3179
15.78136666,3155
15.7922331,3115
15.80309954,3029
15.81396598,3229
15.82483242,3066
15.83569886,3043
15.8465653,2954
15.85743174,2996
15.86829818,3081
15.87916462,3030
15.89003106,2979
15.9008975,3190
15.91176394,3036
15.92263038,3139
15.93349682,2979
15.94436326,3053
15.9552297,3118
15.96609614,3084
15.97696258,3081
15.98782902,3066
15.99869546,3036
16.0095619,3096
16.02042834,3027
16.03129478,3126
16.04216122,3021
16.05302766,3059
16.0638941,3057
16.07476054,3084
16.08562698,3021
16.09649342,3016
16.10735986,3088
16.1182263,3009
16.12909274,3143
16.13995918,2973
16.15082562,3010
16.16169206,3007
16.1725585,3173
16.18342494,3041
16.19429138,3017
16.20515782,3118
16.21602426,3080
16.2268907,2960
16.23775714,3069
16.24862358,3116
16.25949002,2966
16.27035646,3122
16.2812229,2991
16.29208934,3046
16.30295578,3063
16.31382222,3106
16.32468866,3050
16.3355551,3078
16.34642154,3137
16.35728798,3081
16.36815442,3094
16.37902086,3114
16.3898873,3102
16.40075374,2970
16.41162018,3000
16.42248662,2976
16.43335306,3140
16.4442195,2967
16.45508594,3058
16.46595238,3090
16.47681882,3021
16.48768526,3100
16.4985517,3013
16.50941814,3171
16.52028458,3110
16.53115102,3093
16.54201746,3123
16.5528839,3138
16.56375034,3060
16.57461678,3047
16.58548322,2969
16.59634966,3043
16.6072161,3088
16.61808254,3052
16.62894898,3108
16.63981542,3015
16.65068186,3127
16.6615483,2983
16.67241474,3064
16.68328118,3094
16.69414762,3111
16.70501406,2915
16.7158805,3098
16.72674694,3117
16.73761338,3067
16.74847982,3087
16.75934626,3100
16.7702127,3049
16.78107914,2994
16.79194558,3107
16.80281202,3145
16.81367846,3012
16.8245449,3087
16.83541134,3152
16.84627778,3206
16.85714422,3056
16.86801066,3063
16.8788771,3055
16.88974354,3044
16.90060998,3146
16.91147642,3081
16.92234286,2992
16.9332093,3179
16.94407574,3149
16.95494218,3095
16.96580862,3089
16.97667506,3071
16.9875415,2994
16.99840794,3015
17.00927438,3020
17.02014082,3099
17.03100726,3007
17.0418737,3079
17.05274014,3022
17.06360658,3029
17.07447302,3068
17.08533946,3109
17.0962059,3023
17.10707234,3079
17.11793878,3098
17.12880522,2950
17.13967166,3164
17.1505381,3026
17.16140454,3044
17.17227098,3193
17.18313742,3048
17.19400386,3199
17.2048703,3019
17.21573674,3075
17.22660318,2994
17.23746962,3036
17.24833606,3081
17.2592025,2995
17.27006894,2960
17.28093538,3082
17.29180182,3116
17.30266826,2993
17.3135347,3012
17.32440114,3010
17.33526758,2996
17.34613402,3068
17.35700046,3008
17.3678669,3112
17.37873334,3075
17.38959978,3129
17.40046622,3089
17.41133266,3061
17.4221991,3054
17.43306554,3127
17.44393198,3111
17.45479842,3053
17.46566486,3039
17.4765313,3021
17.48739774,3072
17.49826418,3078
17.50913062,3033
17.51999706,3035
17.5308635,2978
17.54172994,3004
17.55259638,2969
17.56346282,3032
17.57432926,3054
17.5851957,3104
17.59606214,3108
17.60692858,3017
17.61779502,3145
17.62866146,3111
17.6395279,3158
17.65039434,3090
17.66126078,3050
17.67212722,3131
17.68299366,3115
17.6938601,3002
17.70472654,3046
17.71559298,3061
17.72645942,3130
17.73732586,3155
17.7481923,3014
17.75905874,3049
17.76992518,3123
17.78079162,3078
17.79165806,3145
17.8025245,3107
17.81339094,3104
17.82425738,3186
17.83512382,3172
17.84599026,3128
17.8568567,3116
17.86772314,3043
17.87858958,3028
17.88945602,3102
17.90032246,3238
17.9111889,3018
17.92205534,3152
17.93292178,3159
17.94378822,3125
17.95465466,3139
17.9655211,3087
17.97638754,3158
17.98725398,3191
17.99812042,3051
18.00898686,3198
18.0198533,3199
18.03071974,3097
18.04158618,3147
18.05245262,3124
18.06331906,3030
18.0741855,3051
18.08505194,3093
18.09591838,3200
18.10678482,3196
18.11765126,3110
18.1285177,3083
18.13938414,2995
18.15025058,3143
18.16111702,3100
18.17198346,3192
18.1828499,3054
18.19371634,3106
18.20458278,3082
18.21544922,3146
18.22631566,3128
18.2371821,3311
18.24804854,3214
18.25891498,3174
18.26978142,3176
18.28064786,3046
18.2915143,3190
18.30238074,3182
18.31324718,3331
18.32411362,3054
18.33498006,3149
18.3458465,3179
18.35671294,3158
18.36757938,3249
18.37844582,3147
18.38931226,3207
18.4001787,3118
18.41104514,3174
18.42191158,3207
18.43277802,3061
18.44364446,3214
18.4545109,3074
18.46537734,3108
18.47624378,3212
18.48711022,3095
18.49797666,3071
18.5088431,3151
18.51970954,3144
18.53057598,3052
18.54144242,3185
18.55230886,3191
18.5631753,3192
18.57404174,3103
18.58490818,3166
18.59577462,3101
18.60664106,3226
18.6175075,3171
18.62837394,3259
18.63924038,3236
18.65010682,3175
18.66097326,3234
18.6718397,3242
18.68270614,3039
18.69357258,3192
18.70443902,3212
18.71530546,3204
18.7261719,3337
18.73703834,3173
18.74790478,3323
18.75877122,3226
18.76963766,3293
18.7805041,3151
18.79137054,3196
18.80223698,3240
18.81310342,3299
18.82396986,3252
18.8348363,3211
18.84570274,3201
18.85656918,3210
18.86743562,3235
18.87830206,3124
18.8891685,3255
18.90003494,3211
18.91090138,3330
18.92176782,3272
18.93263426,3295
18.9435007,3308
18.95436714,3291
18.96523358,3168
18.97610002,3150
18.98696646,3144
18.9978329,3384
19.00869934,3231
19.01956578,3261
19.03043222,3302
19.04129866,3243
19.0521651,3250
19.06303154,3202
19.07389798,3267
19.08476442,3306
19.09563086,3217
19.1064973,3215
19.11736374,3325
19.12823018,3229
19.13909662,3219
19.14996306,3366
19.1608295,3194
19.17169594,3251
19.18256238,3283
19.19342882,3361
19.20429526,3368
19.2151617,3334
19.22602814,3352
19.23689458,3383
19.24776102,3272
19.25862746,3158
19.2694939,3304
19.28036034,3244
19.29122678,3276
19.30209322,3191
19.31295966,3343
19.3238261,3271
19.33469254,3348
19.34555898,3393
19.35642542,3366
19.36729186,3287
19.3781583,3500
19.38902474,3373
19.39989118,3258
19.41075762,3315
19.42162406,3385
19.4324905,3314
19.44335694,3434
19.45422338,3405
19.46508982,3277
19.47595626,3377
19.4868227,3380
19.49768914,3444
19.50855558,3402
19.51942202,3395
19.53028846,3393
19.5411549,3352
19.55202134,3443
19.56288778,3410
19.57375422,3445
19.58462066,3381
19.5954871,3500
19.60635354,3415
19.61721998,3458
19.62808642,3535
19.63895286,3530
19.6498193,3442
19.66068574,3477
19.67155218,3458
19.68241862,3481
19.69328506,3543
19.7041515,3594
19.71501794,3525
19.72588438,3558
19.73675082,3550
19.74761726,3586
19.7584837,3522
19.76935014,3570
19.78021658,3752
19.79108302,3668
19.80194946,3668
19.8128159,3743
19.82368234,3650
19.83454878,3757
19.84541522,3657
19.85628166,3707
19.8671481,3776
19.87801454,3769
19.88888098,3804
19.89974742,3819
19.91061386,3767
19.9214803,3810
19.93234674,3818
19.94321318,3952
19.95407962,3886
19.96494606,3895
19.9758125,3868
19.98667894,3966
19.99754538,3896
20.00841182,4008
20.01927826,3988
20.0301447,3899
20.04101114,4079
20.05187758,3937
20.06274402,4010
20.07361046,4076
20.0844769,4054
20.09534334,3978
20.10620978,3985
20.11707622,4072
20.12794266,3970
20.1388091,3956
20.14967554,3936
20.16054198,4027
20.17140842,3985
20.18227486,3959
20.1931413,3888
20.20400774,3907
20.21487418,3974
20.22574062,3943
20.23660706,3967
20.2474735,3873
20.25833994,3878
20.26920638,3871
20.28007282,3841
20.29093926,3899
20.3018057,3714
20.31267214,3723
20.32353858,3676
20.33440502,3703
20.34527146,3681
20.3561379,3586
20.36700434,3624
20.37787078,3626
20.38873722,3593
20.39960366,3723
20.4104701,3441
20.42133654,3587
20.43220298,3479
20.44306942,3648
20.45393586,3595
20.4648023,3704
20.47566874,3530
20.48653518,3616
20.49740162,3476
20.50826806,3603
20.5191345,3440
20.53000094,3619
20.54086738,3506
20.55173382,3528
20.56260026,3597
20.5734667,3568
20.58433314,3530
20.59519958,3566
20.60606602,3569
20.61693246,3506
20.6277989,3445
20.63866534,3551
20.64953178,3489
20.66039822,3500
20.67126466,3406
20.6821311,3539
20.69299754,3643
20.70386398,3538
20.71473042,3569
20.72559686,3334
20.7364633,3407
20.74732974,3491
20.75819618,3338
20.76906262,3502
20.77992906,3447
20.7907955,3509
20.80166194,3392
20.81252838,3343
20.82339482,3498
20.83426126,3471
20.8451277,3470
20.85599414,3494
20.86686058,3390
20.87772702,3476
20.88859346,3380
20.8994599,3381
20.91032634,3396
20.92119278,3412
20.93205922,3428
20.94292566,3550
20.9537921,3346
20.96465854,3408
20.97552498,3473
20.98639142,3477
20.99725786,3413
21.0081243,3424
21.01899074,3455
21.02985718,3286
21.04072362,3436
21.05159006,3344
21.0624565,3413
21.07332294,3394
21.08418938,3298
21.09505582,3468
21.10592226,3379
21.1167887,3391
21.12765514,3366
21.13852158,3401
21.14938802,3351
21.16025446,3361
21.1711209,3383
21.18198734,3350
21.19285378,3365
21.20372022,3322
21.21458666,3415
21.2254531,3353
21.23631954,3378
21.24718598,3211
21.25805242,3330
21.26891886,3346
21.2797853,3345
21.29065174,3267
21.30151818,3367
21.31238462,3373
21.32325106,3385
21.3341175,3379
21.34498394,3330
21.35585038,3268
21.36671682,3229
21.37758326,3353
21.3884497,3402
21.39931614,3377
21.41018258,3398
21.42104902,3312
21.43191546,3318
21.4427819,3217
21.45364834,3302
21.46451478,3186
21.47538122,3427
21.48624766,3187
21.4971141,3314
21.50798054,3343
21.51884698,3184
21.52971342,3269
21.54057986,3363
21.5514463,3217
21.56231274,3200
21.57317918,3316
21.58404562,3312
21.59491206,3346
21.6057785,3300
21.61664494,3240
21.62751138,3319
21.63837782,3322
21.64924426,3399
21.6601107,3216
21.67097714,3297
21.68184358,3283
21.69271002,3345
21.70357646,3242
21.7144429,3244
21.72530934,3300
21.73617578,3317
21.74704222,3398
21.75790866,3167
21.7687751,3248
21.77964154,3188
21.79050798,3265
21.80137442,3244
21.81224086,3215
21.8231073,3167
21.83397374,3236
21.84484018,3257
21.85570662,3208
21.86657306,3208
21.8774395,3210
21.88830594,3349
21.89917238,3142
21.91003882,3175
21.92090526,3199
21.9317717,3180
21.94263814,3118
21.95350458,3200
21.96437102,3248
21.97523746,3158
21.9861039,3206
21.99697034,3231
22.00783678,3219
22.01870322,3260
22.02956966,3218
22.0404361,3155
22.05130254,3181
22.06216898,3075
22.07303542,3300
22.08390186,3057
22.0947683,3209
22.10563474,3210
22.11650118,3174
22.12736762,3178
22.13823406,3178
22.1491005,3194
22.15996694,3087
22.17083338,3241
22.18169982,3270
22.19256626,3258
22.2034327,3271
22.21429914,3209
22.22516558,3359
22.23603202,3143
22.24689846,3182
22.2577649,3232
22.26863134,3217
22.27949778,3280
22.29036422,3274
22.30123066,3360
22.3120971,3211
22.32296354,3267
22.33382998,3378
22.34469642,3182
22.35556286,3279
22.3664293,3227
22.37729574,3365
22.38816218,3221
22.39902862,3353
22.40989506,3328
22.4207615,3259
22.43162794,3366
22.44249438,3437
22.45336082,3304
22.46422726,3241
22.4750937,3414
22.48596014,3319
22.49682658,3289
22.50769302,3273
22.51855946,3402
22.5294259,3411
22.54029234,3449
22.55115878,3373
22.56202522,3354
22.57289166,3388
22.5837581,3405
22.59462454,3353
22.60549098,3334
22.61635742,3325
22.62722386,3446
22.6380903,3383
22.64895674,3313
22.65982318,3417
22.67068962,3375
22.68155606,3330
22.6924225,3348
22.70328894,3409
22.71415538,3419
22.72502182,3344
22.73588826,3353
22.7467547,3372
22.75762114,3271
22.76848758,3405
22.77935402,3404
22.79022046,3385
22.8010869,3346
22.81195334,3322
22.82281978,3437
22.83368622,3235
22.84455266,3347
22.8554191,3317
22.86628554,3382
22.87715198,3442
22.88801842,3401
22.89888486,3345
22.9097513,3334
22.92061774,3267
22.93148418,3511
22.94235062,3367
22.95321706,3439
22.9640835,3342
22.97494994,3359
22.98581638,3402
22.99668282,3408
23.00754926,3379
23.0184157,3314
23.02928214,3357
23.04014858,3236
23.05101502,3196
23.06188146,3396
23.0727479,3380
23.08361434,3392
23.09448078,3283
23.10534722,3317
23.11621366,3374
23.1270801,3323
23.13794654,3350
23.14881298,3294
23.15967942,3368
23.17054586,3355
23.1814123,3222
23.19227874,3277
23.20314518,3366
23.21401162,3290
23.22487806,3175
23.2357445,3247
23.24661094,3217
23.25747738,3294
23.26834382,3308
23.27921026,3223
23.2900767,3230
23.30094314,3280
23.31180958,3215
23.32267602,3233
23.33354246,3331
23.3444089,3266
23.35527534,3253
23.36614178,3311
23.37700822,3307
23.38787466,3256
23.3987411,3273
23.40960754,3325
23.42047398,3267
23.43134042,3182
23.44220686,3231
23.4530733,3310
23.46393974,3201
23.47480618,3123
23.48567262,3218
23.49653906,3276
23.5074055,3200
23.51827194,3299
23.52913838,3325
23.54000482,3324
23.55087126,3387
23.5617377,3292
23.57260414,3276
23.58347058,3319
23.59433702,3245
23.60520346,3336
23.6160699,3239
23.62693634,3323
23.63780278,3253
23.64866922,3314
23.65953566,3309
23.6704021,3234
23.68126854,3412
23.69213498,3333
23.70300142,3318
23.71386786,3466
23.7247343,3364
23.73560074,3471
23.74646718,3414
23.75733362,3396
23.76820006,3389
23.7790665,3562
23.78993294,3695
23.80079938,3809
23.81166582,3491
23.82253226,3549
23.8333987,3603
23.84426514,3707
23.85513158,3709
23.86599802,3663
23.87686446,3549
23.8877309,3691
23.89859734,3644
23.90946378,3414
23.92033022,3544
23.93119666,3351
23.9420631,3442
23.95292954,3410
23.96379598,3342
23.97466242,3367
23.98552886,3264
23.9963953,3305
24.00726174,3225
24.01812818,3380
24.02899462,3233
24.03986106,3221
24.0507275,3239
24.06159394,3329
24.07246038,3375
24.08332682,3311
24.09419326,3313
24.1050597,3260
24.11592614,3307
24.12679258,3250
24.13765902,3367
24.14852546,3299
24.1593919,3256
24.17025834,3258
24.18112478,3359
24.19199122,3342
24.20285766,3281
24.2137241,3212
24.22459054,3298
24.23545698,3154
24.24632342,3232
24.25718986,3213
24.2680563,3189
24.27892274,3258
24.28978918,3229
24.30065562,3212
24.31152206,3245
24.3223885,3139
24.33325494,3160
24.34412138,3227
24.35498782,3398
24.36585426,3231
24.3767207,3226
24.38758714,3125
24.39845358,3210
24.40932002,3197
24.42018646,3194
24.4310529,3178
24.44191934,3233
24.45278578,3295
24.46365222,3266
24.47451866,3224
24.4853851,3160
24.49625154,3212
24.50711798,3322
24.51798442,3200
24.52885086,3289
24.5397173,3187
24.55058374,3282
24.56145018,3283
24.57231662,3221
24.58318306,3220
24.5940495,3276
24.60491594,3195
24.61578238,3145
24.62664882,3200
24.63751526,3229
24.6483817,3280
24.65924814,3293
24.67011458,3257
24.68098102,3234
24.69184746,3224
24.7027139,3199
24.71358034,3165
24.72444678,3223
24.73531322,3281
24.74617966,3222
24.7570461,3247
24.76791254,3141
24.77877898,3244
24.78964542,3201
24.80051186,3294
24.8113783,3201
24.82224474,3257
24.83311118,3263
24.84397762,3350
24.85484406,3286
24.8657105,3222
24.87657694,3169
24.88744338,3196
24.89830982,3357
24.90917626,3185
24.9200427,3253
24.93090914,3372
24.94177558,3287
24.95264202,3259
24.96350846,3244
24.9743749,3183
24.98524134,3292
24.99610778,3303
25.00697422,3323
25.01784066,3249
25.0287071,3358
25.03957354,3365
25.05043998,3315
25.06130642,3286
25.07217286,3320
25.0830393,3261
25.09390574,3222
25.10477218,3304
25.11563862,3406
25.12650506,3297
25.1373715,3293
25.14823794,3371
25.15910438,3362
25.16997082,3339
25.18083726,3322
25.1917037,3330
25.20257014,3404
25.21343658,3284
25.22430302,3430
25.23516946,3310
25.2460359,3328
25.25690234,3266
25.26776878,3238
25.27863522,3307
25.28950166,3209
25.3003681,3263
25.31123454,3260
25.32210098,3227
25.33296742,3150
25.34383386,3246
25.3547003,3310
25.36556674,3343
25.37643318,3222
25.38729962,3317
25.39816606,3163
25.4090325,3178
25.41989894,3178
25.43076538,3112
25.44163182,3263
25.45249826,3273
25.4633647,3106
25.47423114,3213
25.48509758,3232
25.49596402,3230
25.50683046,3195
25.5176969,3263
25.52856334,3252
25.53942978,3283
25.55029622,3198
25.56116266,3256
25.5720291,3190
25.58289554,3277
25.59376198,3224
25.60462842,3210
25.61549486,3292
25.6263613,3277
25.63722774,3220
25.64809418,3344
25.65896062,3259
25.66982706,3173
25.6806935,3275
25.69155994,3132
25.70242638,3250
25.71329282,3168
25.72415926,3250
25.7350257,3241
25.74589214,3298
25.75675858,3231
25.76762502,3094
25.77849146,3204
25.7893579,3188
25.80022434,3281
25.81109078,3201
25.82195722,3268
25.83282366,3262
25.8436901,3275
25.85455654,3170
25.86542298,3198
25.87628942,3190
25.88715586,3228
25.8980223,3246
25.90888874,3289
25.91975518,3302
25.93062162,3233
25.94148806,3242
25.9523545,3271
25.96322094,3256
25.97408738,3278
25.98495382,3280
25.99582026,3246
26.0066867,3264
26.01755314,3118
26.02841958,3129
26.03928602,3191
26.05015246,3226
26.0610189,3265
26.07188534,3186
26.08275178,3209
26.09361822,3260
26.10448466,3245
26.1153511,3261
26.12621754,3313
26.13708398,3336
26.14795042,3290
26.15881686,3177
26.1696833,3272
26.18054974,3197
26.19141618,3252
26.20228262,3122
26.21314906,3218
26.2240155,3209
26.23488194,3245
26.24574838,3191
26.25661482,3328
26.26748126,3317
26.2783477,3076
26.28921414,3242
26.30008058,3113
26.31094702,3201
26.32181346,3316
26.3326799,3226
26.34354634,3252
26.35441278,3264
26.36527922,3365
26.37614566,3243
26.3870121,3128
26.39787854,3164
26.40874498,3295
26.41961142,3153
26.43047786,3193
26.4413443,3372
26.45221074,3240
26.46307718,3268
26.47394362,3274
26.48481006,3255
26.4956765,3225
26.50654294,3252
26.51740938,3245
26.52827582,3248
26.53914226,3171
26.5500087,3318
26.56087514,3178
26.57174158,3235
26.58260802,3214
26.59347446,3340
26.6043409,3203
26.61520734,3189
26.62607378,3314
26.63694022,3218
26.64780666,3292
26.6586731,3223
26.66953954,3323
26.68040598,3239
26.69127242,3214
26.70213886,3222
26.7130053,3179
26.72387174,3278
26.73473818,3212
26.74560462,3205
26.75647106,3239
26.7673375,3185
26.77820394,3181
26.78907038,3268
26.79993682,3237
26.81080326,3358
26.8216697,3157
26.83253614,3325
26.84340258,3242
26.85426902,3208
26.86513546,3116
26.8760019,3315
26.88686834,3302
26.89773478,3256
26.90860122,3191
26.91946766,3253
26.9303341,3312
26.94120054,3249
26.95206698,3333
26.96293342,3348
26.97379986,3275
26.9846663,3255
26.99553274,3484
27.00639918,3277
27.01726562,3346
27.02813206,3315
27.0389985,3338
27.04986494,3376
27.06073138,3408
27.07159782,3326
27.08246426,3296
27.0933307,3301
27.10419714,3395
27.11506358,3442
27.12593002,3267
27.13679646,3369
27.1476629,3147
27.15852934,3250
27.16939578,3254
27.18026222,3256
27.19112866,3276
27.2019951,3153
27.21286154,3325
27.22372798,3324
27.23459442,3267
27.24546086,3186
27.2563273,3342
27.26719374,3361
27.27806018,3238
27.28892662,3365
27.29979306,3312
27.3106595,3290
27.32152594,3355
27.33239238,3328
27.34325882,3314
27.35412526,3253
27.3649917,3321
27.37585814,3249
27.38672458,3355
27.39759102,3278
27.40845746,3324
27.4193239,3341
27.43019034,3227
27.44105678,3236
27.45192322,3270
27.46278966,3307
27.4736561,3289
27.48452254,3275
27.49538898,3276
27.50625542,3387
27.51712186,3347
27.5279883,3340
27.53885474,3423
27.54972118,3333
27.56058762,3325
27.57145406,3318
27.5823205,3326
27.59318694,3265
27.60405338,3301
27.61491982,3219
27.62578626,3353
27.6366527,3396
27.64751914,3341
27.65838558,3305
27.66925202,3358
27.68011846,3354
27.6909849,3264
27.70185134,3428
27.71271778,3269
27.72358422,3352
27.73445066,3360
27.7453171,3359
27.75618354,3417
27.76704998,3400
27.77791642,3269
27.78878286,3320
27.7996493,3324
27.81051574,3321
27.82138218,3367
27.83224862,3390
27.84311506,3317
27.8539815,3431
27.86484794,3300
27.87571438,3376
27.88658082,3423
27.89744726,3315
27.9083137,3372
27.91918014,3241
27.93004658,3350
27.94091302,3365
27.95177946,3440
27.9626459,3242
27.97351234,3402
27.98437878,3294
27.99524522,3452
28.00611166,3249
28.0169781,3484
28.02784454,3419
28.03871098,3360
28.04957742,3370
28.06044386,3306
28.0713103,3486
28.08217674,3432
28.09304318,3436
28.10390962,3420
28.11477606,3446
28.1256425,3343
28.13650894,3367
28.14737538,3366
28.15824182,3396
28.16910826,3424
28.1799747,3441
28.19084114,3430
28.20170758,3389
28.21257402,3371
28.22344046,3317
28.2343069,3434
28.24517334,3437
28.25603978,3380
28.26690622,3296
28.27777266,3460
28.2886391,3355
28.29950554,3409
28.31037198,3340
28.32123842,3330
28.33210486,3417
28.3429713,3525
28.35383774,3412
28.36470418,3343
28.37557062,3504
28.38643706,3313
28.3973035,3479
28.40816994,3356
28.41903638,3533
28.42990282,3272
28.44076926,3476
28.4516357,3370
28.46250214,3346
28.47336858,3341
28.48423502,3467
28.49510146,3474
28.5059679,3357
28.51683434,3352
28.52770078,3303
28.53856722,3310
28.54943366,3506
28.5603001,3472
28.57116654,3353
28.58203298,3473
28.59289942,3482
28.60376586,3439
28.6146323,3517
28.62549874,3428
28.63636518,3573
28.64723162,3557
28.65809806,3477
28.6689645,3505
28.67983094,3446
28.69069738,3485
28.70156382,3474
28.71243026,3498
28.7232967,3538
28.73416314,3520
28.74502958,3653
28.75589602,3594
28.76676246,3539
28.7776289,3455
28.78849534,3669
28.79936178,3583
28.81022822,3556
28.82109466,3627
28.8319611,3621
28.84282754,3585
28.85369398,3555
28.86456042,3589
28.87542686,3675
28.8862933,3808
28.89715974,3582
28.90802618,3680
28.91889262,3769
28.92975906,3683
28.9406255,3801
28.95149194,3776
28.96235838,3808
28.97322482,3680
28.98409126,3972
28.9949577,3848
29.00582414,3974
29.01669058,4067
29.02755702,4015
29.03842346,3949
29.0492899,3913
29.06015634,3917
29.07102278,3999
29.08188922,3796
29.09275566,4071
29.1036221,4123
29.11448854,4037
29.12535498,4007
29.13622142,3987
29.14708786,3907
29.1579543,4004
29.16882074,3978
29.17968718,3930
29.19055362,3893
29.20142006,3872
29.2122865,3940
29.22315294,4014
29.23401938,3923
29.24488582,3952
29.25575226,3957
29.2666187,3953
29.27748514,4083
29.28835158,3917
29.29921802,3910
29.31008446,3951
29.3209509,4007
29.33181734,3877
29.34268378,3895
29.35355022,3885
29.36441666,3786
29.3752831,3916
29.38614954,3930
29.39701598,3919
29.40788242,3864
29.41874886,3899
29.4296153,3998
29.44048174,3985
29.45134818,4010
29.46221462,3982
29.47308106,3988
29.4839475,4019
29.49481394,4140
29.50568038,4107
29.51654682,4081
29.52741326,4139
29.5382797,4038
29.54914614,4113
29.56001258,4177
29.57087902,4175
29.58174546,4141
29.5926119,4132
29.60347834,4147
29.61434478,4264
29.62521122,4088
29.63607766,4199
29.6469441,4093
29.65781054,4163
29.66867698,4126
29.67954342,4178
29.69040986,4152
29.7012763,4304
29.71214274,4303
29.72300918,4239
29.73387562,4350
29.74474206,4419
29.7556085,4324
29.76647494,4421
29.77734138,4360
29.78820782,4355
29.79907426,4381
29.8099407,4466
29.82080714,4544
29.83167358,4440
29.84254002,4347
29.85340646,4490
29.8642729,4694
29.87513934,4562
29.88600578,4555
29.89687222,4610
29.90773866,4746
29.9186051,4511
29.92947154,4584
29.94033798,4750
29.95120442,4799
29.96207086,4659
29.9729373,4716
29.98380374,4844
29.99467018,4753
