"Angle","Counts"
3.00243322,25431
3.01329966,25259
3.0241661,24400
3.03503254,24376
3.04589898,24430
3.05676542,23624
3.06763186,23643
3.0784983,23332
3.08936474,23112
3.10023118,22796
3.11109762,22530
3.12196406,22596
3.1328305,22124
3.14369694,21742
3.15456338,21765
3.16542982,21424
3.17629626,21382
3.1871627,20995
3.19802914,20517
3.20889558,21066
3.21976202,20472
3.23062846,20309
3.2414949,20122
3.25236134,19616
3.26322778,19469
3.27409422,19383
3.28496066,19402
3.2958271,18981
3.30669354,18887
3.31755998,18573
3.32842642,18593
3.33929286,18420
3.3501593,17990
3.36102574,17980
3.37189218,17495
3.38275862,17802
3.39362506,17429
3.4044915,17330
3.41535794,17387
3.42622438,16946
3.43709082,17061
3.44795726,16755
3.4588237,16400
3.46969014,16629
3.48055658,16431
3.49142302,16277
3.50228946,16070
3.5131559,15990
3.52402234,15642
3.53488878,15602
3.54575522,15762
3.55662166,15344
3.5674881,15573
3.57835454,15135
3.58922098,15160
3.60008742,15199
3.61095386,15106
3.6218203,14749
3.63268674,14668
3.64355318,14670
3.65441962,14467
3.66528606,14408
3.6761525,14261
3.68701894,14151
3.69788538,13868
3.70875182,13955
3.71961826,13874
3.7304847,13894
3.74135114,13618
3.75221758,13645
3.76308402,13538
3.77395046,13547
3.7848169,13414
3.79568334,13438
3.80654978,13063
3.81741622,12914
3.82828266,12800
3.8391491,12769
3.85001554,12802
3.86088198,12823
3.87174842,12794
3.88261486,12589
3.8934813,12442
3.90434774,12482
3.91521418,12369
3.92608062,12025
3.93694706,12237
3.9478135,12217
3.95867994,11997
3.96954638,11867
3.98041282,11895
3.99127926,11887
4.0021457,11899
4.01301214,11639
4.02387858,11579
4.03474502,11777
4.04561146,11702
4.0564779,11600
4.06734434,11659
4.07821078,11262
4.08907722,11338
4.09994366,11272
4.1108101,11291
4.12167654,11220
4.13254298,11087
4.14340942,10924
4.15427586,10963
4.1651423,10889
4.17600874,10946
4.18687518,10948
4.19774162,10855
4.20860806,10680
4.2194745,10721
4.23034094,10561
4.24120738,10748
4.25207382,10358
4.26294026,10475
4.2738067,10364
4.28467314,10587
4.29553958,10267
4.30640602,10244
4.31727246,10525
4.3281389,10201
4.33900534,10463
4.34987178,10174
4.36073822,10255
4.37160466,10355
4.3824711,10162
4.39333754,10100
4.40420398,10210
4.41507042,9976
4.42593686,9996
4.4368033,10035
4.44766974,9882
4.45853618,9897
4.46940262,9838
4.48026906,9939
4.4911355,9894
4.50200194,9781
4.51286838,9936
4.52373482,9725
4.53460126,9662
4.5454677,9906
4.55633414,9551
4.56720058,9597
4.57806702,9884
4.58893346,9663
4.5997999,9716
4.61066634,9555
4.62153278,9452
4.63239922,9649
4.64326566,9598
4.6541321,9566
4.66499854,9603
4.67586498,9606
4.68673142,9522
4.69759786,9528
4.7084643,9538
4.71933074,9518
4.73019718,9527
4.74106362,9539
4.75193006,9447
4.7627965,9435
4.77366294,9314
4.78452938,9389
4.79539582,9457
4.80626226,9445
4.8171287,9372
4.82799514,9519
4.83886158,9477
4.84972802,9413
4.86059446,9493
4.8714609,9395
4.88232734,9519
4.89319378,9481
4.90406022,9414
4.91492666,9417
4.9257931,9357
4.93665954,9280
4.94752598,9339
4.95839242,9294
4.96925886,9509
4.9801253,9464
4.99099174,9386
5.00185818,9440
5.01272462,9511
5.02359106,9460
5.0344575,9554
5.04532394,9362
5.05619038,9412
5.06705682,9409
5.07792326,9475
5.0887897,9420
5.09965614,9291
5.11052258,9381
5.12138902,9405
5.13225546,9514
5.1431219,9449
5.15398834,9352
5.16485478,9423
5.17572122,9528
5.18658766,9313
5.1974541,9409
5.20832054,9508
5.21918698,9569
5.23005342,9449
5.24091986,9387
5.2517863,9762
5.26265274,9588
5.27351918,9676
5.28438562,9339
5.29525206,9825
5.3061185,9589
5.31698494,9538
5.32785138,9435
5.33871782,9624
5.34958426,9774
5.3604507,9633
5.37131714,9712
5.38218358,9744
5.39305002,9598
5.40391646,9646
5.4147829,9665
5.42564934,9804
5.43651578,9717
5.44738222,9686
5.45824866,9733
5.4691151,9754
5.47998154,9533
5.49084798,9815
5.50171442,9743
5.51258086,9782
5.5234473,9808
5.53431374,9900
5.54518018,9882
5.55604662,9780
5.56691306,9758
5.5777795,9838
5.58864594,9780
5.59951238,9987
5.61037882,9887
5.62124526,9670
5.6321117,10121
5.64297814,9945
5.65384458,10024
5.66471102,9957
5.67557746,10001
5.6864439,9869
5.69731034,9873
5.70817678,10123
5.71904322,10063
5.72990966,10126
5.7407761,10129
5.75164254,10045
5.76250898,9985
5.77337542,9981
5.78424186,10049
5.7951083,10084
5.80597474,10235
5.81684118,10192
5.82770762,10260
5.83857406,10463
5.8494405,10114
5.86030694,10062
5.87117338,10107
5.88203982,10228
5.89290626,10233
5.9037727,10283
5.91463914,10311
5.92550558,10316
5.93637202,10240
5.94723846,10422
5.9581049,10450
5.96897134,10355
5.97983778,10368
5.99070422,10287
6.00157066,10433
6.0124371,10396
6.02330354,10264
6.03416998,10210
6.04503642,10454
6.05590286,10450
6.0667693,10520
6.07763574,10452
6.08850218,10480
6.09936862,10426
6.11023506,10353
6.1211015,10353
6.13196794,10365
6.14283438,10369
6.15370082,10492
6.16456726,10578
6.1754337,10529
6.18630014,10555
6.19716658,10512
6.20803302,10329
6.21889946,10540
6.2297659,10388
6.24063234,10425
6.25149878,10586
6.26236522,10433
6.27323166,10539
6.2840981,10452
6.29496454,10472
6.30583098,10617
6.31669742,10518
6.32756386,10581
6.3384303,10553
6.34929674,10407
6.36016318,10677
6.37102962,10539
6.38189606,10482
6.3927625,10346
6.40362894,10254
6.41449538,10410
6.42536182,10252
6.43622826,10486
6.4470947,10258
6.45796114,10463
6.46882758,10538
6.47969402,10194
6.49056046,10373
6.5014269,10520
6.51229334,10314
6.52315978,10405
6.53402622,10201
6.54489266,10593
6.5557591,10269
6.56662554,10332
6.57749198,10229
6.58835842,10342
6.59922486,10327
6.6100913,10170
6.62095774,10416
6.63182418,10249
6.64269062,10114
6.65355706,10045
6.6644235,10178
6.67528994,10342
6.68615638,10160
6.69702282,10211
6.70788926,10207
6.7187557,10121
6.72962214,10274
6.74048858,10148
6.75135502,10132
6.76222146,10173
6.7730879,10251
6.78395434,9918
6.79482078,10114
6.80568722,10042
6.81655366,9982
6.8274201,9804
6.83828654,10066
6.84915298,10161
6.86001942,10090
6.87088586,9892
6.8817523,10035
6.89261874,9840
6.90348518,9962
6.91435162,9758
6.92521806,9980
6.9360845,9831
6.94695094,9892
6.95781738,9800
6.96868382,9792
6.97955026,9796
6.9904167,9688
7.00128314,9636
7.01214958,9792
7.02301602,9576
7.03388246,9525
7.0447489,9673
7.05561534,9714
7.06648178,9486
7.07734822,9382
7.08821466,9447
7.0990811,9401
7.10994754,9427
7.12081398,9644
7.13168042,9472
7.14254686,9386
7.1534133,9512
7.16427974,9432
7.17514618,9491
7.18601262,9509
7.19687906,9424
7.2077455,9229
7.21861194,9271
7.22947838,9164
7.24034482,9257
7.25121126,9245
7.2620777,9186
7.27294414,9237
7.28381058,9151
7.29467702,9195
7.30554346,9140
7.3164099,9059
7.32727634,9186
7.33814278,8930
7.34900922,9074
7.35987566,8904
7.3707421,9141
7.38160854,8919
7.39247498,8939
7.40334142,8939
7.41420786,8927
7.4250743,8879
7.43594074,8961
7.44680718,8905
7.45767362,8916
7.46854006,8803
7.4794065,8675
7.49027294,8653
7.50113938,8625
7.51200582,8773
7.52287226,8692
7.5337387,8613
7.54460514,8596
7.55547158,8760
7.56633802,8494
7.57720446,8708
7.5880709,8600
7.59893734,8540
7.60980378,8398
7.62067022,8466
7.63153666,8411
7.6424031,8503
7.65326954,8396
7.66413598,8393
7.67500242,8528
7.68586886,8361
7.6967353,8356
7.70760174,8310
7.71846818,8339
7.72933462,8349
7.74020106,8311
7.7510675,8397
7.76193394,8205
7.77280038,8151
7.78366682,8234
7.79453326,8124
7.8053997,8243
7.81626614,8050
7.82713258,8018
7.83799902,7971
7.84886546,7941
7.8597319,8151
7.87059834,7977
7.88146478,8006
7.89233122,7932
7.90319766,8052
7.9140641,7884
7.92493054,8260
7.93579698,7872
7.94666342,7803
7.95752986,7855
7.9683963,7888
7.97926274,7845
7.99012918,8062
8.00099562,7934
8.01186206,7829
8.0227285,7679
8.03359494,7736
8.04446138,7810
8.05532782,7681
8.06619426,7633
8.0770607,7569
8.08792714,7693
8.09879358,7682
8.10966002,7743
8.12052646,7602
8.1313929,7724
8.14225934,7725
8.15312578,7674
8.16399222,7506
8.17485866,7590
8.1857251,7468
8.19659154,7505
8.20745798,7580
8.21832442,7578
8.22919086,7485
8.2400573,7381
8.25092374,7523
8.26179018,7520
8.27265662,7514
8.28352306,7428
8.2943895,7393
8.30525594,7400
8.31612238,7333
8.32698882,7407
8.33785526,7299
8.3487217,7413
8.35958814,7401
8.37045458,7417
8.38132102,7296
8.39218746,7248
8.4030539,7258
8.41392034,7253
8.42478678,7194
8.43565322,7312
8.44651966,7264
8.4573861,7287
8.46825254,7194
8.47911898,7357
8.48998542,7131
8.50085186,6970
8.5117183,7175
8.52258474,7284
8.53345118,7048
8.54431762,7211
8.55518406,7096
8.5660505,7140
8.57691694,7077
8.58778338,7005
8.59864982,6979
8.60951626,7133
8.6203827,6977
8.63124914,7002
8.64211558,6922
8.65298202,6977
8.66384846,6879
8.6747149,6908
8.68558134,6988
8.69644778,7058
8.70731422,7047
8.71818066,6890
8.7290471,6985
8.73991354,6891
8.75077998,6873
8.76164642,6880
8.77251286,6816
8.7833793,6742
8.79424574,6948
8.80511218,6851
8.81597862,6941
8.82684506,6811
8.8377115,7006
8.84857794,6637
8.85944438,6854
8.87031082,6693
8.88117726,6838
8.8920437,6780
8.90291014,6738
8.91377658,6850
8.92464302,6915
8.93550946,6706
8.9463759,6685
8.95724234,6650
8.96810878,6639
8.97897522,6654
8.98984166,6896
9.0007081,6834
9.01157454,6793
9.02244098,6635
9.03330742,6645
9.04417386,6675
9.0550403,6730
9.06590674,6671
9.07677318,6623
9.08763962,6656
9.09850606,6651
9.1093725,6600
9.12023894,6669
9.13110538,6776
9.14197182,6658
9.15283826,6538
9.1637047,6687
9.17457114,6687
9.18543758,6573
9.19630402,6569
9.20717046,6607
9.2180369,6640
9.22890334,6698
9.23976978,6591
9.25063622,6583
9.26150266,6596
9.2723691,6595
9.28323554,6460
9.29410198,6509
9.30496842,6741
9.31583486,6514
9.3267013,6558
9.33756774,6689
9.34843418,6599
9.35930062,6523
9.37016706,6537
9.3810335,6580
9.39189994,6456
9.40276638,6556
9.41363282,6636
9.42449926,6730
9.4353657,6562
9.44623214,6577
9.45709858,6578
9.46796502,6525
9.47883146,6571
9.4896979,6891
9.50056434,6605
9.51143078,6437
9.52229722,6614
9.53316366,6635
9.5440301,6598
9.55489654,6720
9.56576298,6673
9.57662942,6657
9.58749586,6642
9.5983623,6660
9.60922874,6752
9.62009518,6741
9.63096162,6769
9.64182806,6570
9.6526945,6750
9.66356094,6831
9.67442738,6871
9.68529382,6954
9.69616026,6729
9.7070267,6792
9.71789314,6827
9.72875958,6921
9.73962602,6807
9.75049246,7001
9.7613589,6949
9.77222534,6931
9.78309178,7024
9.79395822,6885
9.80482466,6888
9.8156911,7040
9.82655754,6969
9.83742398,7030
9.84829042,7141
9.85915686,7083
9.8700233,6972
9.88088974,7030
9.89175618,7072
9.90262262,6921
9.91348906,7001
9.9243555,6923
9.93522194,6909
9.94608838,6854
9.95695482,6718
9.96782126,6856
9.9786877,6610
9.98955414,6570
10.00042058,6521
10.01128702,6525
10.02215346,6526
10.0330199,6467
10.04388634,6341
10.05475278,6286
10.06561922,6442
10.07648566,6358
10.0873521,6255
10.09821854,6331
10.10908498,6225
10.11995142,6288
10.13081786,6181
10.1416843,6127
10.15255074,6159
10.16341718,6061
10.17428362,6069
10.18515006,6002
10.1960165,6246
10.20688294,5974
10.21774938,6131
10.22861582,6015
10.23948226,5945
10.2503487,6037
10.26121514,6050
10.27208158,6109
10.28294802,5891
10.29381446,5830
10.3046809,5934
10.31554734,6033
10.32641378,5968
10.33728022,6001
10.34814666,6041
10.3590131,5900
10.36987954,6002
10.38074598,5917
10.39161242,5870
10.40247886,5909
10.4133453,5903
10.42421174,6071
10.43507818,5909
10.44594462,5894
10.45681106,5940
10.4676775,5877
10.47854394,5783
10.48941038,5920
10.50027682,5779
10.51114326,5781
10.5220097,5868
10.53287614,5912
10.54374258,5888
10.55460902,5889
10.56547546,5855
10.5763419,5805
10.58720834,5872
10.59807478,5912
10.60894122,5925
10.61980766,5946
10.6306741,5771
10.64154054,5856
10.65240698,5995
10.66327342,5761
10.67413986,5833
10.6850063,5715
10.69587274,5653
10.70673918,5750
10.71760562,5768
10.72847206,5740
10.7393385,5664
10.75020494,5554
10.76107138,5735
10.77193782,5770
10.78280426,5665
10.7936707,5760
10.80453714,5810
10.81540358,5758
10.82627002,5777
10.83713646,5705
10.8480029,5604
10.85886934,5644
10.86973578,5595
10.88060222,5736
10.89146866,5743
10.9023351,5749
10.91320154,5511
10.92406798,5568
10.93493442,5666
10.94580086,5590
10.9566673,5687
10.96753374,5751
10.97840018,5635
10.98926662,5633
11.00013306,5753
11.0109995,5743
11.02186594,5654
11.03273238,5727
11.04359882,5589
11.05446526,5738
11.0653317,5506
11.07619814,5706
11.08706458,5580
11.09793102,5618
11.10879746,5603
11.1196639,5700
11.13053034,5701
11.14139678,5582
11.15226322,5594
11.16312966,5648
11.1739961,5663
11.18486254,5757
11.19572898,5604
11.20659542,5664
11.21746186,5535
11.2283283,5604
11.23919474,5659
11.25006118,5602
11.26092762,5708
11.27179406,5588
11.2826605,5598
11.29352694,5683
11.30439338,5537
11.31525982,5708
11.32612626,5605
11.3369927,5589
11.34785914,5722
11.35872558,5600
11.36959202,5656
11.38045846,5455
11.3913249,5550
11.40219134,5517
11.41305778,5608
11.42392422,5683
11.43479066,5592
11.4456571,5542
11.45652354,5789
11.46738998,5682
11.47825642,5598
11.48912286,5527
11.4999893,5652
11.51085574,5501
11.52172218,5781
11.53258862,5610
11.54345506,5698
11.5543215,5457
11.56518794,5602
11.57605438,5650
11.58692082,5677
11.59778726,5495
11.6086537,5674
11.61952014,5627
11.63038658,5682
11.64125302,5567
11.65211946,5608
11.6629859,5649
11.67385234,5747
11.68471878,5712
11.69558522,5637
11.70645166,5651
11.7173181,5708
11.72818454,5633
11.73905098,5799
11.74991742,5821
11.76078386,5814
11.7716503,5541
11.78251674,5857
11.79338318,5695
11.80424962,5545
11.81511606,5675
11.8259825,5660
11.83684894,5812
11.84771538,5628
11.85858182,5779
11.86944826,5677
11.8803147,5736
11.89118114,5715
11.90204758,5516
11.91291402,5642
11.92378046,5861
11.9346469,5667
11.94551334,5667
11.95637978,5663
11.96724622,5757
11.97811266,5812
11.9889791,5834
11.99984554,5712
12.01071198,5677
12.02157842,5768
12.03244486,5604
12.0433113,5828
12.05417774,5842
12.06504418,5797
12.07591062,5750
12.08677706,5800
12.0976435,5758
12.10850994,5917
12.11937638,5689
12.13024282,5945
12.14110926,5791
12.1519757,5802
12.16284214,5896
12.17370858,5980
12.18457502,5888
12.19544146,5908
12.2063079,5823
12.21717434,5901
12.22804078,5869
12.23890722,5897
12.24977366,5865
12.2606401,6100
12.27150654,5854
12.28237298,5868
12.29323942,5952
12.30410586,5737
12.3149723,5972
12.32583874,5859
12.33670518,6044
12.34757162,5950
12.35843806,5964
12.3693045,6029
12.38017094,5757
12.39103738,6027
12.40190382,6152
12.41277026,6020
12.4236367,6070
12.43450314,6070
12.44536958,6120
12.45623602,6084
12.46710246,6045
12.4779689,5950
12.48883534,6070
12.49970178,6104
12.51056822,6064
12.52143466,6299
12.5323011,6289
12.54316754,6170
12.55403398,6245
12.56490042,6238
12.57576686,6203
12.5866333,6226
12.59749974,6322
12.60836618,6266
12.61923262,6430
12.63009906,6266
12.6409655,6259
12.65183194,6332
12.66269838,6456
12.67356482,6439
12.68443126,6285
12.6952977,6268
12.70616414,6313
12.71703058,6330
12.72789702,6361
12.73876346,6350
12.7496299,6402
12.76049634,6551
12.77136278,6335
12.78222922,6467
12.79309566,6543
12.8039621,6504
12.81482854,6537
12.82569498,6502
12.83656142,6552
12.84742786,6603
12.8582943,6577
12.86916074,6689
12.88002718,6646
12.89089362,6627
12.90176006,6675
12.9126265,6702
12.92349294,6698
12.93435938,6902
12.94522582,6718
12.95609226,6866
12.9669587,6621
12.97782514,6902
12.98869158,6982
12.99955802,7007
13.01042446,6931
13.0212909,6927
13.03215734,6885
13.04302378,7071
13.05389022,7107
13.06475666,7097
13.0756231,7198
13.08648954,7098
13.09735598,7303
13.10822242,7265
13.11908886,7430
13.1299553,7330
13.14082174,7479
13.15168818,7394
13.16255462,7587
13.17342106,7534
13.1842875,7371
13.19515394,7586
13.20602038,7611
13.21688682,7714
13.22775326,7934
13.2386197,7924
13.24948614,7958
13.26035258,7776
13.27121902,7990
13.28208546,8050
13.2929519,7998
13.30381834,8264
13.31468478,8342
13.32555122,8429
13.33641766,8477
13.3472841,8443
13.35815054,8455
13.36901698,8575
13.37988342,8692
13.39074986,8714
13.4016163,8666
13.41248274,9042
13.42334918,9158
13.43421562,9150
13.44508206,9175
13.4559485,9560
13.46681494,9442
13.47768138,9676
13.48854782,10016
13.49941426,9941
13.5102807,10019
13.52114714,10338
13.53201358,10451
13.54288002,10500
13.55374646,10629
13.5646129,10913
13.57547934,11206
13.58634578,11277
13.59721222,11430
13.60807866,11755
13.6189451,11952
13.62981154,12173
13.64067798,12632
13.65154442,12743
13.66241086,12877
13.6732773,13157
13.68414374,13796
13.69501018,13818
13.70587662,14096
13.71674306,14574
13.7276095,14834
13.73847594,15098
13.74934238,15655
13.76020882,15567
13.77107526,16198
13.7819417,16387
13.79280814,16780
13.80367458,17025
13.81454102,17353
13.82540746,17855
13.8362739,18350
13.84714034,18601
13.85800678,19022
13.86887322,19220
13.87973966,19566
13.8906061,20033
13.90147254,19954
13.91233898,20371
13.92320542,20528
13.93407186,20251
13.9449383,20762
13.95580474,20472
13.96667118,20767
13.97753762,20434
13.98840406,19972
13.9992705,19465
14.01013694,19467
14.02100338,18665
14.03186982,18059
14.04273626,17063
14.0536027,16662
14.06446914,15691
14.07533558,15068
14.08620202,14229
14.09706846,13527
14.1079349,13191
14.11880134,12367
14.12966778,11813
14.14053422,11400
14.15140066,10860
14.1622671,10290
14.17313354,9950
14.18399998,9559
14.19486642,9322
14.20573286,9041
14.2165993,8723
14.22746574,8388
14.23833218,8246
14.24919862,8093
14.26006506,7668
14.2709315,7628
14.28179794,7412
14.29266438,7150
14.30353082,7168
14.31439726,6869
14.3252637,6865
14.33613014,6862
14.34699658,6566
14.35786302,6306
14.36872946,6330
14.3795959,6273
14.39046234,6104
14.40132878,5911
14.41219522,5846
14.42306166,5798
14.4339281,5622
14.44479454,5772
14.45566098,5471
14.46652742,5426
14.47739386,5300
14.4882603,5227
14.49912674,5319
14.50999318,5221
14.52085962,5231
14.53172606,4894
14.5425925,5183
14.55345894,5020
14.56432538,5044
14.57519182,4938
14.58605826,4860
14.5969247,4973
14.60779114,4838
14.61865758,4916
14.62952402,4699
14.64039046,4895
14.6512569,4616
14.66212334,4679
14.67298978,4756
14.68385622,4536
14.69472266,4542
14.7055891,4540
14.71645554,4446
14.72732198,4431
14.73818842,4468
14.74905486,4355
14.7599213,4360
14.77078774,4346
14.78165418,4317
14.79252062,4204
14.80338706,4193
14.8142535,4324
14.82511994,4195
14.83598638,4219
14.84685282,4320
14.85771926,4137
14.8685857,4224
14.87945214,4103
14.89031858,4209
14.90118502,4069
14.91205146,4062
14.9229179,4067
14.93378434,4035
14.94465078,3919
14.95551722,3887
14.96638366,3961
14.9772501,3909
14.98811654,3960
14.99898298,3903
15.00984942,3866
15.02071586,3973
15.0315823,3888
15.04244874,3822
15.05331518,3897
15.06418162,3803
15.07504806,3777
15.0859145,3801
15.09678094,3793
15.10764738,3780
15.11851382,3681
15.12938026,3740
15.1402467,3735
15.15111314,3777
15.16197958,3773
15.17284602,3745
15.18371246,3779
15.1945789,3684
15.20544534,3723
15.21631178,3661
15.22717822,3638
15.23804466,3641
15.2489111,3694
15.25977754,3655
15.27064398,3602
15.28151042,3635
15.29237686,3645
15.3032433,3561
15.31410974,3612
15.32497618,3610
15.33584262,3595
15.34670906,3553
15.3575755,3512
15.36844194,3518
15.37930838,3485
15.39017482,3507
15.40104126,3499
15.4119077,3539
15.42277414,3479
15.43364058,3551
15.44450702,3524
15.45537346,3519
15.4662399,3558
15.47710634,3593
15.48797278,3559
15.49883922,3438
15.50970566,3451
15.5205721,3564
15.53143854,3429
15.54230498,3447
15.55317142,3345
15.56403786,3319
15.5749043,3494
15.58577074,3394
15.59663718,3339
15.60750362,3371
15.61837006,3381
15.6292365,3374
15.64010294,3370
15.65096938,3374
15.66183582,3376
15.67270226,3301
15.6835687,3366
15.69443514,3363
15.70530158,3251
15.71616802,3375
15.72703446,3342
15.7379009,3389
15.74876734,3258
15.75963378,3395
15.77050022,3253
15.78136666,3330
15.7922331,3199
15.80309954,3364
15.81396598,3153
15.82483242,3302
15.83569886,3203
15.8465653,3203
15.85743174,3178
15.86829818,3375
15.87916462,3203
15.89003106,3246
15.9008975,3268
15.91176394,3308
15.92263038,3316
15.93349682,3186
15.94436326,3116
15.9552297,3200
15.96609614,3265
15.97696258,3156
15.98782902,3248
15.99869546,3235
16.0095619,3177
16.02042834,3090
16.03129478,3151
16.04216122,3297
16.05302766,3229
16.0638941,3197
16.07476054,3309
16.08562698,3275
16.09649342,3268
16.10735986,3323
16.1182263,3215
16.12909274,3263
16.13995918,3243
16.15082562,3255
16.16169206,3276
16.1725585,3291
16.18342494,3300
16.19429138,3338
16.20515782,3258
16.21602426,3361
16.2268907,3289
16.23775714,3353
16.24862358,3236
16.25949002,3366
16.27035646,3324
16.2812229,3124
16.29208934,3334
16.30295578,3173
16.31382222,3217
16.32468866,3060
16.3355551,3242
16.34642154,3045
16.35728798,3115
16.36815442,3084
16.37902086,3093
16.3898873,3075
16.40075374,3085
16.41162018,3198
16.42248662,3079
16.43335306,3062
16.4442195,3102
16.45508594,3114
16.46595238,2956
16.47681882,3150
16.48768526,2996
16.4985517,3085
16.50941814,3207
16.52028458,3104
16.53115102,3001
16.54201746,2997
16.5528839,3073
16.56375034,2996
16.57461678,2967
16.58548322,3014
16.59634966,2967
16.6072161,3126
16.61808254,2941
16.62894898,3113
16.63981542,2980
16.65068186,2986
16.6615483,3040
16.67241474,3056
16.68328118,3084
16.69414762,3006
16.70501406,3054
16.7158805,3008
16.72674694,2985
16.73761338,2972
16.74847982,3149
16.75934626,2944
16.7702127,3076
16.78107914,3004
16.79194558,2986
16.80281202,3022
16.81367846,2871
16.8245449,3102
16.83541134,2984
16.84627778,2899
16.85714422,2947
16.86801066,2898
16.8788771,3032
16.88974354,2952
16.90060998,2954
16.91147642,2937
16.92234286,2990
16.9332093,3009
16.94407574,2946
16.95494218,3045
16.96580862,2904
16.97667506,3037
16.9875415,2980
16.99840794,2913
17.00927438,2912
17.02014082,2823
17.03100726,2951
17.0418737,2912
17.05274014,2985
17.06360658,2987
17.07447302,3027
17.08533946,2945
17.0962059,2964
17.10707234,3010
17.11793878,2998
17.12880522,2893
17.13967166,2900
17.1505381,2817
17.16140454,2919
17.17227098,2912
17.18313742,2958
17.19400386,2828
17.2048703,2906
17.21573674,2921
17.22660318,2939
17.23746962,2893
17.24833606,2951
17.2592025,2873
17.27006894,2907
17.28093538,2849
17.29180182,2896
17.30266826,2983
17.3135347,2937
17.32440114,2793
17.33526758,2835
17.34613402,2763
17.35700046,2892
17.3678669,2857
17.37873334,2988
17.38959978,2911
17.40046622,2747
17.41133266,2847
17.4221991,2868
17.43306554,2827
17.44393198,2903
17.45479842,2834
17.46566486,2925
17.4765313,2871
17.48739774,2923
17.49826418,2754
17.50913062,2832
17.51999706,2938
17.5308635,2878
17.54172994,2925
17.55259638,2789
17.56346282,2910
17.57432926,2859
17.5851957,2859
17.59606214,2932
17.60692858,2813
17.61779502,2932
17.62866146,2847
17.6395279,2914
17.65039434,2915
17.66126078,2811
17.67212722,2841
17.68299366,2943
17.6938601,2875
17.70472654,2827
17.71559298,2755
17.72645942,2770
17.73732586,2787
17.7481923,2795
17.75905874,2873
17.76992518,3001
17.78079162,2805
17.79165806,2847
17.8025245,2833
17.81339094,2838
17.82425738,2798
17.83512382,2897
17.84599026,2796
17.8568567,2841
17.86772314,2871
17.87858958,2896
17.88945602,2786
17.90032246,2860
17.9111889,2917
17.92205534,2811
17.93292178,2908
17.94378822,2804
17.95465466,2794
17.9655211,2775
17.97638754,2903
17.98725398,2815
17.99812042,2821
18.00898686,2858
18.0198533,2913
18.03071974,2938
18.04158618,2872
18.05245262,2830
18.06331906,2741
18.0741855,2781
18.08505194,2826
18.09591838,2891
18.10678482,2785
18.11765126,2883
18.1285177,2858
18.13938414,2883
18.15025058,2818
18.16111702,2860
18.17198346,2783
18.1828499,2823
18.19371634,2831
18.20458278,2855
18.21544922,2746
18.22631566,2795
18.2371821,2805
18.24804854,2853
18.25891498,2844
18.26978142,2891
18.28064786,2826
18.2915143,2808
18.30238074,2904
18.31324718,2893
18.32411362,2858
18.33498006,2789
18.3458465,2731
18.35671294,2715
18.36757938,2849
18.37844582,2804
18.38931226,2813
18.4001787,2811
18.41104514,2782
18.42191158,2680
18.43277802,2763
18.44364446,2849
18.4545109,2833
18.46537734,2846
18.47624378,2789
18.48711022,2723
18.49797666,2867
18.5088431,2857
18.51970954,2945
18.53057598,2865
18.54144242,2843
18.55230886,2832
18.5631753,2850
18.57404174,2823
18.58490818,2853
18.59577462,2861
18.60664106,2903
18.6175075,2951
18.62837394,2783
18.63924038,2854
18.65010682,2791
18.66097326,2821
18.6718397,2722
18.68270614,2854
18.69357258,2765
18.70443902,2902
18.71530546,2893
18.7261719,2828
18.73703834,2953
18.74790478,2722
18.75877122,2854
18.76963766,2910
18.7805041,2790
18.79137054,2896
18.80223698,2806
18.81310342,2761
18.82396986,2837
18.8348363,2811
18.84570274,2910
18.85656918,2769
18.86743562,2768
18.87830206,2822
18.8891685,2767
18.90003494,2770
18.91090138,2716
18.92176782,2842
18.93263426,2693
18.9435007,2818
18.95436714,2806
18.96523358,2778
18.97610002,2787
18.98696646,2700
18.9978329,2866
19.00869934,2714
19.01956578,2796
19.03043222,2869
19.04129866,2678
19.0521651,2818
19.06303154,2806
19.07389798,2853
19.08476442,2716
19.09563086,2634
19.1064973,2846
19.11736374,2762
19.12823018,2859
19.13909662,2793
19.14996306,2733
19.1608295,2766
19.17169594,2781
19.18256238,2774
19.19342882,2790
19.20429526,2732
19.2151617,2824
19.22602814,2853
19.23689458,2785
19.24776102,2895
19.25862746,2712
19.2694939,2827
19.28036034,2772
19.29122678,2786
19.30209322,2754
19.31295966,2707
19.3238261,2680
19.33469254,2773
19.34555898,2757
19.35642542,2826
19.36729186,2837
19.3781583,2883
19.38902474,2844
19.39989118,2807
19.41075762,2768
19.42162406,2714
19.4324905,2832
19.44335694,2821
19.45422338,2894
19.46508982,2815
19.47595626,2825
19.4868227,2797
19.49768914,2818
19.50855558,2826
19.51942202,2816
19.53028846,2807
19.5411549,2769
19.55202134,2821
19.56288778,2864
19.57375422,2841
19.58462066,2741
19.5954871,2697
19.60635354,2755
19.61721998,2748
19.62808642,2801
19.63895286,2765
19.6498193,2814
19.66068574,2782
19.67155218,2857
19.68241862,2782
19.69328506,2779
19.7041515,2783
19.71501794,2738
19.72588438,2757
19.73675082,2727
19.74761726,2806
19.7584837,2718
19.76935014,2722
19.78021658,2875
19.79108302,2861
19.80194946,2825
19.8128159,2724
19.82368234,2750
19.83454878,2730
19.84541522,2904
19.85628166,2830
19.8671481,2712
19.87801454,2825
19.88888098,2784
19.89974742,2786
19.91061386,2804
19.9214803,2785
19.93234674,2754
19.94321318,2819
19.95407962,2881
19.96494606,2872
19.9758125,2930
19.98667894,2813
19.99754538,2758
20.00841182,2684
20.01927826,2925
20.0301447,2829
20.04101114,2932
20.05187758,2843
20.06274402,2953
20.07361046,2968
20.0844769,2981
20.09534334,2978
20.10620978,2940
20.11707622,3040
20.12794266,2931
20.1388091,3129
20.14967554,3071
20.16054198,3023
20.17140842,3051
20.18227486,3149
20.1931413,3120
20.20400774,3141
20.21487418,3082
20.22574062,3055
20.23660706,3131
20.2474735,3203
20.25833994,3096
20.26920638,3170
20.28007282,3140
20.29093926,3043
20.3018057,3062
20.31267214,3113
20.32353858,3043
20.33440502,2983
20.34527146,3059
20.3561379,3110
20.36700434,3086
20.37787078,2959
20.38873722,3045
20.39960366,3032
20.4104701,2976
20.42133654,2924
20.43220298,2951
20.44306942,2864
20.45393586,2878
20.4648023,2832
20.47566874,2772
20.48653518,2831
20.49740162,2839
20.50826806,2928
20.5191345,2791
20.53000094,2824
20.54086738,2806
20.55173382,2863
20.56260026,2834
20.5734667,2699
20.58433314,2799
20.59519958,2793
20.60606602,2920
20.61693246,2765
20.6277989,2797
20.63866534,2712
20.64953178,2686
20.66039822,2855
20.67126466,2722
20.6821311,2828
20.69299754,2853
20.70386398,2797
20.71473042,2725
20.72559686,2896
20.7364633,2790
20.74732974,2846
20.75819618,2791
20.76906262,2802
20.77992906,2771
20.7907955,2775
20.80166194,2775
20.81252838,2755
20.82339482,2860
20.83426126,2809
20.8451277,2766
20.85599414,2958
20.86686058,2849
20.87772702,2888
20.88859346,2863
20.8994599,2821
20.91032634,2810
20.92119278,2744
20.93205922,2736
20.94292566,2750
20.9537921,2799
20.96465854,2744
20.97552498,2870
20.98639142,2805
20.99725786,2741
21.0081243,2727
21.01899074,2769
21.02985718,2839
21.04072362,2728
21.05159006,2715
21.0624565,2700
21.07332294,2640
21.08418938,2755
21.09505582,2645
21.10592226,2632
21.1167887,2664
21.12765514,2691
21.13852158,2563
21.14938802,2733
21.16025446,2641
21.1711209,2698
21.18198734,2609
21.19285378,2790
21.20372022,2642
21.21458666,2725
21.2254531,2627
21.23631954,2723
21.24718598,2642
21.25805242,2585
21.26891886,2582
21.2797853,2546
21.29065174,2640
21.30151818,2497
21.31238462,2546
21.32325106,2578
21.3341175,2731
21.34498394,2706
21.35585038,2590
21.36671682,2594
21.37758326,2654
21.3884497,2581
21.39931614,2627
21.41018258,2637
21.42104902,2606
21.43191546,2637
21.4427819,2669
21.45364834,2638
21.46451478,2552
21.47538122,2630
21.48624766,2623
21.4971141,2521
21.50798054,2579
21.51884698,2596
21.52971342,2554
21.54057986,2596
21.5514463,2608
21.56231274,2676
21.57317918,2676
21.58404562,2627
21.59491206,2539
21.6057785,2666
21.61664494,2681
21.62751138,2625
21.63837782,2599
21.64924426,2555
21.6601107,2632
21.67097714,2645
21.68184358,2627
21.69271002,2657
21.70357646,2641
21.7144429,2536
21.72530934,2659
21.73617578,2573
21.74704222,2586
21.75790866,2546
21.7687751,2663
21.77964154,2579
21.79050798,2617
21.80137442,2470
21.81224086,2669
21.8231073,2555
21.83397374,2538
21.84484018,2562
21.85570662,2551
21.86657306,2572
21.8774395,2695
21.88830594,2612
21.89917238,2590
21.91003882,2558
21.92090526,2755
21.9317717,2518
21.94263814,2542
21.95350458,2606
21.96437102,2647
21.97523746,2626
21.9861039,2594
21.99697034,2666
22.00783678,2571
22.01870322,2693
22.02956966,2704
22.0404361,2608
22.05130254,2716
22.06216898,2675
22.07303542,2673
22.08390186,2649
22.0947683,2670
22.10563474,2794
22.11650118,2701
22.12736762,2692
22.13823406,2742
22.1491005,2763
22.15996694,2753
22.17083338,2839
22.18169982,2770
22.19256626,2735
22.2034327,2673
22.21429914,2747
22.22516558,2866
22.23603202,2788
22.24689846,2837
22.2577649,2899
22.26863134,2907
22.27949778,2880
22.29036422,2873
22.30123066,2922
22.3120971,2716
22.32296354,2846
22.33382998,2847
22.34469642,2911
22.35556286,2862
22.3664293,2944
22.37729574,2981
22.38816218,2927
22.39902862,2965
22.40989506,2929
22.4207615,2990
22.43162794,2981
22.44249438,2993
22.45336082,3028
22.46422726,3168
22.4750937,3040
22.48596014,3095
22.49682658,3124
22.50769302,3077
22.51855946,3237
22.5294259,3143
22.54029234,3256
22.55115878,3153
22.56202522,3190
22.57289166,3197
22.5837581,3417
22.59462454,3314
22.60549098,3378
22.61635742,3382
22.62722386,3343
22.6380903,3257
22.64895674,3393
22.65982318,3373
22.67068962,3479
22.68155606,3430
22.6924225,3409
22.70328894,3341
22.71415538,3510
22.72502182,3470
22.73588826,3387
22.7467547,3511
22.75762114,3345
22.76848758,3497
22.77935402,3448
22.79022046,3451
22.8010869,3464
22.81195334,3424
22.82281978,3421
22.83368622,3493
22.84455266,3370
22.8554191,3376
22.86628554,3378
22.87715198,3450
22.88801842,3355
22.89888486,3448
22.9097513,3330
22.92061774,3378
22.93148418,3340
22.94235062,3374
22.95321706,3368
22.9640835,3303
22.97494994,3321
22.98581638,3289
22.99668282,3420
23.00754926,3314
23.0184157,3271
23.02928214,3366
23.04014858,3241
23.05101502,3347
23.06188146,3240
23.0727479,3256
23.08361434,3181
23.09448078,3350
23.10534722,3254
23.11621366,3200
23.1270801,3212
23.13794654,3251
23.14881298,3154
23.15967942,3264
23.17054586,3086
23.1814123,3191
23.19227874,3231
23.20314518,3189
23.21401162,3277
23.22487806,3152
23.2357445,3293
23.24661094,3171
23.25747738,3209
23.26834382,3075
23.27921026,3130
23.2900767,3122
23.30094314,3125
23.31180958,3189
23.32267602,3208
23.33354246,3171
23.3444089,3160
23.35527534,3209
23.36614178,3128
23.37700822,3217
23.38787466,3209
23.3987411,3125
23.40960754,3158
23.42047398,3080
23.43134042,3117
23.44220686,3067
23.4530733,3139
23.46393974,3165
23.47480618,3123
23.48567262,3094
23.49653906,3032
23.5074055,3125
23.51827194,3127
23.52913838,3099
23.54000482,3056
23.55087126,3065
23.5617377,3139
23.57260414,3096
23.58347058,3097
23.59433702,3140
23.60520346,3189
23.6160699,3110
23.62693634,3136
23.63780278,3081
23.64866922,3056
23.65953566,3282
23.6704021,3097
23.68126854,3270
23.69213498,3043
23.70300142,3124
23.71386786,3145
23.7247343,3108
23.73560074,3187
23.74646718,3097
23.75733362,3097
23.76820006,3127
23.7790665,3202
23.78993294,3165
23.80079938,3293
23.81166582,3184
23.82253226,3171
23.8333987,3315
23.84426514,3327
23.85513158,3339
23.86599802,3350
23.87686446,3362
23.8877309,3357
23.89859734,3451
23.90946378,3380
23.92033022,3465
23.93119666,3312
23.9420631,3268
23.95292954,3285
23.96379598,3154
23.97466242,3266
23.98552886,3114
23.9963953,3207
24.00726174,3066
24.01812818,3049
24.02899462,3030
24.03986106,3189
24.0507275,3087
24.06159394,3204
24.07246038,3180
24.08332682,3111
24.09419326,3208
24.1050597,2977
24.11592614,3010
24.12679258,3121
24.13765902,2981
24.14852546,3085
24.1593919,3030
24.17025834,3095
24.18112478,3065
24.19199122,2990
24.20285766,3005
24.2137241,3029
24.22459054,3068
24.23545698,3045
24.24632342,2940
24.25718986,3010
24.2680563,3098
24.27892274,2924
24.28978918,3032
24.30065562,3065
24.31152206,3035
24.3223885,3004
24.33325494,3012
24.34412138,3026
24.35498782,3040
24.36585426,3095
24.3767207,3038
24.38758714,3007
24.39845358,3089
24.40932002,3009
24.42018646,2971
24.4310529,2991
24.44191934,3086
24.45278578,3014
24.46365222,3007
24.47451866,3123
24.4853851,2949
24.49625154,2890
24.50711798,2976
24.51798442,3003
24.52885086,3003
24.5397173,3062
24.55058374,3039
24.56145018,2961
24.57231662,3106
24.58318306,3116
24.5940495,3016
24.60491594,3064
24.61578238,2953
24.62664882,2933
24.63751526,2961
24.6483817,2914
24.65924814,2970
24.67011458,2887
24.68098102,3022
24.69184746,2978
24.7027139,2960
24.71358034,2931
24.72444678,3016
24.73531322,2947
24.74617966,3002
24.7570461,3012
24.76791254,2971
24.77877898,3015
24.78964542,2907
24.80051186,3027
24.8113783,2899
24.82224474,3021
24.83311118,2842
24.84397762,2968
24.85484406,2920
24.8657105,2933
24.87657694,2903
24.88744338,2914
24.89830982,3026
24.90917626,2895
24.9200427,2832
24.93090914,2904
24.94177558,2912
24.95264202,2931
24.96350846,2922
24.9743749,2915
24.98524134,2891
24.99610778,2819
25.00697422,2948
25.01784066,2922
25.0287071,2900
25.03957354,2865
25.05043998,3035
25.06130642,2907
25.07217286,2870
25.0830393,2962
25.09390574,2852
25.10477218,2916
25.11563862,2865
25.12650506,3031
25.1373715,2937
25.14823794,2843
25.15910438,2932
25.16997082,2891
25.18083726,2886
25.1917037,2931
25.20257014,2977
25.21343658,2868
25.22430302,2933
25.23516946,2917
25.2460359,3046
25.25690234,3030
25.26776878,3017
25.27863522,2984
25.28950166,3059
25.3003681,2983
25.31123454,2991
25.32210098,2925
25.33296742,2987
25.34383386,2868
25.3547003,2929
25.36556674,2925
25.37643318,2840
25.38729962,2954
25.39816606,2936
25.4090325,2974
25.41989894,2914
25.43076538,2945
25.44163182,2973
25.45249826,2895
25.4633647,2877
25.47423114,2954
25.48509758,2889
25.49596402,2895
25.50683046,2915
25.5176969,2961
25.52856334,2987
25.53942978,3023
25.55029622,2952
25.56116266,2903
25.5720291,2967
25.58289554,2987
25.59376198,2916
25.60462842,3038
25.61549486,2778
25.6263613,2967
25.63722774,2941
25.64809418,3047
25.65896062,2911
25.66982706,2967
25.6806935,3001
25.69155994,3079
25.70242638,2931
25.71329282,2943
25.72415926,2891
25.7350257,3005
25.74589214,2924
25.75675858,3004
25.76762502,2898
25.77849146,3015
25.7893579,2930
25.80022434,3001
25.81109078,2974
25.82195722,3011
25.83282366,3060
25.8436901,2950
25.85455654,2952
25.86542298,2987
25.87628942,2957
25.88715586,3017
25.8980223,2948
25.90888874,2958
25.91975518,2982
25.93062162,2924
25.94148806,2953
25.9523545,3016
25.96322094,2972
25.97408738,3017
25.98495382,2992
25.99582026,2994
26.0066867,2971
26.01755314,3077
26.02841958,2910
26.03928602,3001
26.05015246,2857
26.0610189,3133
26.07188534,3045
26.08275178,2917
26.09361822,3039
26.10448466,2957
26.1153511,3005
26.12621754,2946
26.13708398,3001
26.14795042,2981
26.15881686,2927
26.1696833,2958
26.18054974,2895
26.19141618,3099
26.20228262,3062
26.21314906,2955
26.2240155,2993
26.23488194,3020
26.24574838,3031
26.25661482,3012
26.26748126,2989
26.2783477,2945
26.28921414,2998
26.30008058,3091
26.31094702,3102
26.32181346,2973
26.3326799,2956
26.34354634,3039
26.35441278,2948
26.36527922,3064
26.37614566,2996
26.3870121,3023
26.39787854,3065
26.40874498,3087
26.41961142,3052
26.43047786,3103
26.4413443,3091
26.45221074,3010
26.46307718,3101
26.47394362,2947
26.48481006,3026
26.4956765,3103
26.50654294,3044
26.51740938,3025
26.52827582,3095
26.53914226,3153
26.5500087,3073
26.56087514,3023
26.57174158,3097
26.58260802,3113
26.59347446,2982
26.6043409,3120
26.61520734,3051
26.62607378,3157
26.63694022,3208
26.64780666,3140
26.6586731,3081
26.66953954,3132
26.68040598,3139
26.69127242,3138
26.70213886,3213
26.7130053,3099
26.72387174,3051
26.73473818,3171
26.74560462,3104
26.75647106,3100
26.7673375,3140
26.77820394,3081
26.78907038,3087
26.79993682,3214
26.81080326,3178
26.8216697,3090
26.83253614,3116
26.84340258,3128
26.85426902,3203
26.86513546,3073
26.8760019,3187
26.88686834,3089
26.89773478,3090
26.90860122,3124
26.91946766,3271
26.9303341,3240
26.94120054,3239
26.95206698,3226
26.96293342,3222
26.97379986,3202
26.9846663,3312
26.99553274,3240
27.00639918,3256
27.01726562,3342
27.02813206,3294
27.0389985,3340
27.04986494,3320
27.06073138,3301
27.07159782,3375
27.08246426,3324
27.0933307,3241
27.10419714,3256
27.11506358,3319
27.12593002,3282
27.13679646,3313
27.1476629,3390
27.15852934,3359
27.16939578,3346
27.18026222,3341
27.19112866,3390
27.2019951,3332
27.21286154,3449
27.22372798,3255
27.23459442,3368
27.24546086,3289
27.2563273,3352
27.26719374,3288
27.27806018,3461
27.28892662,3351
27.29979306,3401
27.3106595,3400
27.32152594,3477
27.33239238,3432
27.34325882,3429
27.35412526,3500
27.3649917,3395
27.37585814,3517
27.38672458,3507
27.39759102,3443
27.40845746,3491
27.4193239,3563
27.43019034,3527
27.44105678,3655
27.45192322,3558
27.46278966,3521
27.4736561,3618
27.48452254,3623
27.49538898,3607
27.50625542,3646
27.51712186,3675
27.5279883,3649
27.53885474,3664
27.54972118,3664
27.56058762,3717
27.57145406,3791
27.5823205,3792
27.59318694,3833
27.60405338,3797
27.61491982,3777
27.62578626,3922
27.6366527,3711
27.64751914,3971
27.65838558,3867
27.66925202,3988
27.68011846,3882
27.6909849,4037
27.70185134,3920
27.71271778,3912
27.72358422,3952
27.73445066,4102
27.7453171,4037
27.75618354,4111
27.76704998,4128
27.77791642,4139
27.78878286,4158
27.7996493,4182
27.81051574,4259
27.82138218,4167
27.83224862,4231
27.84311506,4291
27.8539815,4471
27.86484794,4375
27.87571438,4374
27.88658082,4363
27.89744726,4269
27.9083137,4489
27.91918014,4392
27.93004658,4395
27.94091302,4551
27.95177946,4599
27.9626459,4627
27.97351234,4641
27.98437878,4727
27.99524522,4735
28.00611166,4767
28.0169781,4790
28.02784454,4807
28.03871098,4902
28.04957742,5047
28.06044386,5175
28.0713103,5032
28.08217674,5103
28.09304318,5382
28.10390962,5350
28.11477606,5575
28.1256425,5533
28.13650894,5418
28.14737538,5562
28.15824182,5709
28.16910826,5731
28.1799747,5958
28.19084114,6066
28.20170758,6184
28.21257402,6181
28.22344046,6321
28.2343069,6461
28.24517334,6665
28.25603978,6613
28.26690622,6866
28.27777266,6925
28.2886391,7170
28.29950554,7327
28.31037198,7675
28.32123842,7636
28.33210486,7919
28.3429713,8114
28.35383774,8282
28.36470418,8493
28.37557062,8799
28.38643706,9009
28.3973035,9304
28.40816994,9533
28.41903638,9763
28.42990282,9992
28.44076926,10591
28.4516357,11048
28.46250214,11495
28.47336858,11971
28.48423502,12226
28.49510146,12720
28.5059679,13380
28.51683434,13476
28.52770078,13917
28.53856722,14309
28.54943366,14967
28.5603001,14918
28.57116654,15197
28.58203298,15490
28.59289942,16005
28.60376586,15864
28.6146323,16074
28.62549874,16132
28.63636518,15603
28.64723162,15452
28.65809806,15298
28.6689645,14819
28.67983094,14207
28.69069738,13752
28.70156382,13351
28.71243026,13065
28.7232967,12667
28.73416314,12219
28.74502958,11592
28.75589602,11350
28.76676246,10814
28.7776289,10573
28.78849534,10361
28.79936178,10238
28.81022822,9908
28.82109466,9624
28.8319611,9314
28.84282754,9099
28.85369398,8698
28.86456042,8873
28.87542686,8491
28.8862933,8506
28.89715974,8306
28.90802618,8005
28.91889262,7894
28.92975906,7720
28.9406255,7895
28.95149194,7702
28.96235838,7491
28.97322482,7615
28.98409126,7433
28.9949577,7408
29.00582414,7287
29.01669058,7085
29.02755702,7057
29.03842346,7103
29.0492899,6966
29.06015634,6990
29.07102278,6781
29.08188922,6695
29.09275566,6693
29.1036221,6556
29.11448854,6395
29.12535498,6577
29.13622142,6485
29.14708786,6323
29.1579543,6249
29.16882074,6286
29.17968718,6219
29.19055362,6112
29.20142006,5862
29.2122865,6000
29.22315294,5939
29.23401938,6034
29.24488582,6074
29.25575226,6009
29.2666187,6010
29.27748514,5958
29.28835158,6029
29.29921802,5924
29.31008446,5945
29.3209509,6004
29.33181734,6050
29.34268378,6161
29.35355022,6154
29.36441666,6423
29.3752831,6284
29.38614954,6257
29.39701598,6327
29.40788242,6175
29.41874886,6043
29.4296153,5930
29.44048174,5875
29.45134818,5731
29.46221462,5592
29.47308106,5432
29.4839475,5418
29.49481394,5249
29.50568038,5231
29.51654682,5235
29.52741326,5119
29.5382797,5169
29.54914614,4949
29.56001258,5006
29.57087902,4876
29.58174546,4898
29.5926119,4944
29.60347834,4779
29.61434478,4854
29.62521122,4793
29.63607766,4831
29.6469441,4841
29.65781054,4770
29.66867698,4795
29.67954342,4676
29.69040986,4665
29.7012763,4666
29.71214274,4592
29.72300918,4717
29.73387562,4523
29.74474206,4696
29.7556085,4643
29.76647494,4664
29.77734138,4579
29.78820782,4490
29.79907426,4502
29.8099407,4660
29.82080714,4640
29.83167358,4579
29.84254002,4554
29.85340646,4497
29.8642729,4528
29.87513934,4509
29.88600578,4478
29.89687222,4475
29.90773866,4452
29.9186051,4509
29.92947154,4545
29.94033798,4544
29.95120442,4564
29.96207086,4561
29.9729373,4460
29.98380374,4563
29.99467018,4599
