"Angle","Counts"
3.00243322,25462
3.01329966,25175
3.0241661,24775
3.03503254,24683
3.04589898,24315
3.05676542,24227
3.06763186,23731
3.0784983,23771
3.08936474,23130
3.10023118,22972
3.11109762,22785
3.12196406,22560
3.1328305,22152
3.14369694,22003
3.15456338,21648
3.16542982,21530
3.17629626,21395
3.1871627,21432
3.19802914,20955
3.20889558,20920
3.21976202,20484
3.23062846,20256
3.2414949,20046
3.25236134,19658
3.26322778,19670
3.27409422,19663
3.28496066,19402
3.2958271,18928
3.30669354,19026
3.31755998,18845
3.32842642,18779
3.33929286,18252
3.3501593,18251
3.36102574,18215
3.37189218,17955
3.38275862,17551
3.39362506,17424
3.4044915,17710
3.41535794,17058
3.42622438,16904
3.43709082,16839
3.44795726,16487
3.4588237,16454
3.46969014,16593
3.48055658,16178
3.49142302,15877
3.50228946,15902
3.5131559,15675
3.52402234,15589
3.53488878,15218
3.54575522,15449
3.55662166,15091
3.5674881,14855
3.57835454,14636
3.58922098,14484
3.60008742,14666
3.61095386,14417
3.6218203,14231
3.63268674,13964
3.64355318,14176
3.65441962,13809
3.66528606,13674
3.6761525,13545
3.68701894,13554
3.69788538,13336
3.70875182,13299
3.71961826,13150
3.7304847,12909
3.74135114,12935
3.75221758,12777
3.76308402,12515
3.77395046,12618
3.7848169,12297
3.79568334,12183
3.80654978,12108
3.81741622,12191
3.82828266,12079
3.8391491,11869
3.85001554,11766
3.86088198,11500
3.87174842,11440
3.88261486,11223
3.8934813,11144
3.90434774,11313
3.91521418,11231
3.92608062,10818
3.93694706,10656
3.9478135,10532
3.95867994,10657
3.96954638,10541
3.98041282,10405
3.99127926,10423
4.0021457,10176
4.01301214,10070
4.02387858,10217
4.03474502,10019
4.04561146,9791
4.0564779,9724
4.06734434,9610
4.07821078,9529
4.08907722,9678
4.09994366,9387
4.1108101,9150
4.12167654,9357
4.13254298,9015
4.14340942,9254
4.15427586,8848
4.1651423,8764
4.17600874,8749
4.18687518,8723
4.19774162,8589
4.20860806,8712
4.2194745,8481
4.23034094,8385
4.24120738,8251
4.25207382,8299
4.26294026,8291
4.2738067,8056
4.28467314,7985
4.29553958,7919
4.30640602,7840
4.31727246,7738
4.3281389,7790
4.33900534,7628
4.34987178,7584
4.36073822,7727
4.37160466,7413
4.3824711,7421
4.39333754,7202
4.40420398,7001
4.41507042,7054
4.42593686,7110
4.4368033,6956
4.44766974,6915
4.45853618,6797
4.46940262,6867
4.48026906,6677
4.4911355,6680
4.50200194,6639
4.51286838,6595
4.52373482,6552
4.53460126,6328
4.5454677,6464
4.55633414,6405
4.56720058,6323
4.57806702,6125
4.58893346,6145
4.5997999,6139
4.61066634,6086
4.62153278,6141
4.63239922,5963
4.64326566,6023
4.6541321,5827
4.66499854,5923
4.67586498,5680
4.68673142,5767
4.69759786,5694
4.7084643,5581
4.71933074,5707
4.73019718,5551
4.74106362,5474
4.75193006,5366
4.7627965,5266
4.77366294,5283
4.78452938,5245
4.79539582,5286
4.80626226,5225
4.8171287,5293
4.82799514,5061
4.83886158,5085
4.84972802,4955
4.86059446,5007
4.8714609,4995
4.88232734,5019
4.89319378,4851
4.90406022,4915
4.91492666,4870
4.9257931,4793
4.93665954,4770
4.94752598,4704
4.95839242,4677
4.96925886,4628
4.9801253,4542
4.99099174,4645
5.00185818,4612
5.01272462,4487
5.02359106,4508
5.0344575,4432
5.04532394,4419
5.05619038,4480
5.06705682,4384
5.07792326,4364
5.0887897,4327
5.09965614,4294
5.11052258,4230
5.12138902,4169
5.13225546,4235
5.1431219,4232
5.15398834,4046
5.16485478,4225
5.17572122,4067
5.18658766,4037
5.1974541,3893
5.20832054,3971
5.21918698,3954
5.23005342,3864
5.24091986,3951
5.2517863,3786
5.26265274,3789
5.27351918,3746
5.28438562,3840
5.29525206,3816
5.3061185,3701
5.31698494,3560
5.32785138,3705
5.33871782,3722
5.34958426,3684
5.3604507,3634
5.37131714,3586
5.38218358,3514
5.39305002,3622
5.40391646,3611
5.4147829,3531
5.42564934,3525
5.43651578,3614
5.44738222,3517
5.45824866,3466
5.4691151,3470
5.47998154,3389
5.49084798,3373
5.50171442,3522
5.51258086,3370
5.5234473,3302
5.53431374,3419
5.54518018,3310
5.55604662,3318
5.56691306,3310
5.5777795,3329
5.58864594,3237
5.59951238,3367
5.61037882,3282
5.62124526,3244
5.6321117,3229
5.64297814,3185
5.65384458,3264
5.66471102,3250
5.67557746,3206
5.6864439,3210
5.69731034,3205
5.70817678,3220
5.71904322,3132
5.72990966,2940
5.7407761,3094
5.75164254,3104
5.76250898,3132
5.77337542,3132
5.78424186,2993
5.7951083,2969
5.80597474,3049
5.81684118,3011
5.82770762,2977
5.83857406,3017
5.8494405,3037
5.86030694,2918
5.87117338,3020
5.88203982,3089
5.89290626,3086
5.9037727,3064
5.91463914,2931
5.92550558,2982
5.93637202,3025
5.94723846,3051
5.9581049,3043
5.96897134,2948
5.97983778,2947
5.99070422,2926
6.00157066,2895
6.0124371,3007
6.02330354,2954
6.03416998,2930
6.04503642,2916
6.05590286,2980
6.0667693,2913
6.07763574,2951
6.08850218,2943
6.09936862,2838
6.11023506,2975
6.1211015,2949
6.13196794,2956
6.14283438,2959
6.15370082,2925
6.16456726,2969
6.1754337,2944
6.18630014,2979
6.19716658,2914
6.20803302,2834
6.21889946,2860
6.2297659,2843
6.24063234,2933
6.25149878,2841
6.26236522,2827
6.27323166,2852
6.2840981,3005
6.29496454,2982
6.30583098,2919
6.31669742,2897
6.32756386,2932
6.3384303,2766
6.34929674,2836
6.36016318,2818
6.37102962,2828
6.38189606,2983
6.3927625,2926
6.40362894,2995
6.41449538,2855
6.42536182,2862
6.43622826,2990
6.4470947,2907
6.45796114,2799
6.46882758,2925
6.47969402,2917
6.49056046,2894
6.5014269,2921
6.51229334,2869
6.52315978,2857
6.53402622,2940
6.54489266,2971
6.5557591,2877
6.56662554,2935
6.57749198,2957
6.58835842,2820
6.59922486,2971
6.6100913,2915
6.62095774,2832
6.63182418,2856
6.64269062,2835
6.65355706,2834
6.6644235,2953
6.67528994,2824
6.68615638,2828
6.69702282,2869
6.70788926,2876
6.7187557,2968
6.72962214,2922
6.74048858,2907
6.75135502,2779
6.76222146,2986
6.7730879,2882
6.78395434,2911
6.79482078,2903
6.80568722,2951
6.81655366,2898
6.8274201,2879
6.83828654,2931
6.84915298,3014
6.86001942,2864
6.87088586,3000
6.8817523,2956
6.89261874,2869
6.90348518,2907
6.91435162,2936
6.92521806,2835
6.9360845,2823
6.94695094,2850
6.95781738,2745
6.96868382,2798
6.97955026,2890
6.9904167,2827
7.00128314,2831
7.01214958,2893
7.02301602,2821
7.03388246,2866
7.0447489,2767
7.05561534,2904
7.06648178,2844
7.07734822,2840
7.08821466,2849
7.0990811,2914
7.10994754,2855
7.12081398,2871
7.13168042,2844
7.14254686,2892
7.1534133,2865
7.16427974,2772
7.17514618,2761
7.18601262,2775
7.19687906,2813
7.2077455,2750
7.21861194,2836
7.22947838,2731
7.24034482,2755
7.25121126,2801
7.2620777,2770
7.27294414,2730
7.28381058,2791
7.29467702,2635
7.30554346,2867
7.3164099,2798
7.32727634,2813
7.33814278,2694
7.34900922,2803
7.35987566,2783
7.3707421,2799
7.38160854,2803
7.39247498,2647
7.40334142,2752
7.41420786,2829
7.4250743,2751
7.43594074,2740
7.44680718,2712
7.45767362,2821
7.46854006,2725
7.4794065,2797
7.49027294,2761
7.50113938,2767
7.51200582,2737
7.52287226,2799
7.5337387,2698
7.54460514,2752
7.55547158,2844
7.56633802,2792
7.57720446,2626
7.5880709,2694
7.59893734,2718
7.60980378,2686
7.62067022,2668
7.63153666,2719
7.6424031,2776
7.65326954,2637
7.66413598,2638
7.67500242,2672
7.68586886,2795
7.6967353,2700
7.70760174,2691
7.71846818,2651
7.72933462,2754
7.74020106,2662
7.7510675,2689
7.76193394,2673
7.77280038,2670
7.78366682,2697
7.79453326,2675
7.8053997,2664
7.81626614,2647
7.82713258,2596
7.83799902,2692
7.84886546,2682
7.8597319,2659
7.87059834,2654
7.88146478,2572
7.89233122,2687
7.90319766,2677
7.9140641,2645
7.92493054,2668
7.93579698,2593
7.94666342,2682
7.95752986,2557
7.9683963,2651
7.97926274,2566
7.99012918,2597
8.00099562,2667
8.01186206,2617
8.0227285,2705
8.03359494,2617
8.04446138,2640
8.05532782,2680
8.06619426,2751
8.0770607,2635
8.08792714,2560
8.09879358,2562
8.10966002,2638
8.12052646,2617
8.1313929,2614
8.14225934,2627
8.15312578,2621
8.16399222,2541
8.17485866,2653
8.1857251,2554
8.19659154,2507
8.20745798,2625
8.21832442,2672
8.22919086,2500
8.2400573,2694
8.25092374,2590
8.26179018,2645
8.27265662,2572
8.28352306,2637
8.2943895,2566
8.30525594,2686
8.31612238,2545
8.32698882,2552
8.33785526,2524
8.3487217,2489
8.35958814,2649
8.37045458,2633
8.38132102,2680
8.39218746,2635
8.4030539,2584
8.41392034,2550
8.42478678,2656
8.43565322,2522
8.44651966,2617
8.4573861,2688
8.46825254,2557
8.47911898,2574
8.48998542,2571
8.50085186,2519
8.5117183,2657
8.52258474,2548
8.53345118,2610
8.54431762,2596
8.55518406,2746
8.5660505,2681
8.57691694,2596
8.58778338,2559
8.59864982,2685
8.60951626,2630
8.6203827,2578
8.63124914,2659
8.64211558,2627
8.65298202,2579
8.66384846,2660
8.6747149,2562
8.68558134,2585
8.69644778,2737
8.70731422,2669
8.71818066,2581
8.7290471,2717
8.73991354,2614
8.75077998,2705
8.76164642,2576
8.77251286,2632
8.7833793,2616
8.79424574,2613
8.80511218,2724
8.81597862,2622
8.82684506,2595
8.8377115,2621
8.84857794,2525
8.85944438,2645
8.87031082,2577
8.88117726,2653
8.8920437,2600
8.90291014,2659
8.91377658,2688
8.92464302,2660
8.93550946,2719
8.9463759,2647
8.95724234,2600
8.96810878,2557
8.97897522,2566
8.98984166,2698
9.0007081,2792
9.01157454,2587
9.02244098,2650
9.03330742,2683
9.04417386,2673
9.0550403,2747
9.06590674,2561
9.07677318,2694
9.08763962,2573
9.09850606,2720
9.1093725,2692
9.12023894,2627
9.13110538,2644
9.14197182,2622
9.15283826,2701
9.1637047,2574
9.17457114,2594
9.18543758,2686
9.19630402,2726
9.20717046,2632
9.2180369,2594
9.22890334,2743
9.23976978,2670
9.25063622,2602
9.26150266,2625
9.2723691,2597
9.28323554,2662
9.29410198,2717
9.30496842,2755
9.31583486,2653
9.3267013,2719
9.33756774,2607
9.34843418,2638
9.35930062,2669
9.37016706,2769
9.3810335,2653
9.39189994,2760
9.40276638,2651
9.41363282,2746
9.42449926,2661
9.4353657,2694
9.44623214,2730
9.45709858,2698
9.46796502,2685
9.47883146,2787
9.4896979,2773
9.50056434,2755
9.51143078,2737
9.52229722,2713
9.53316366,2656
9.5440301,2678
9.55489654,2751
9.56576298,2758
9.57662942,2640
9.58749586,2667
9.5983623,2654
9.60922874,2877
9.62009518,2718
9.63096162,2819
9.64182806,2830
9.6526945,2714
9.66356094,2970
9.67442738,2729
9.68529382,2759
9.69616026,2762
9.7070267,2790
9.71789314,2820
9.72875958,2861
9.73962602,2825
9.75049246,2753
9.7613589,2823
9.77222534,2880
9.78309178,2894
9.79395822,2817
9.80482466,2945
9.8156911,2928
9.82655754,2869
9.83742398,2858
9.84829042,2938
9.85915686,2924
9.8700233,2827
9.88088974,2931
9.89175618,2940
9.90262262,2955
9.91348906,2962
9.9243555,3017
9.93522194,2909
9.94608838,2922
9.95695482,2878
9.96782126,2862
9.9786877,2826
9.98955414,2918
10.00042058,2852
10.01128702,2750
10.02215346,2760
10.0330199,2818
10.04388634,2729
10.05475278,2836
10.06561922,2758
10.07648566,2830
10.0873521,2652
10.09821854,2732
10.10908498,2815
10.11995142,2789
10.13081786,2735
10.1416843,2718
10.15255074,2704
10.16341718,2725
10.17428362,2842
10.18515006,2719
10.1960165,2748
10.20688294,2663
10.21774938,2709
10.22861582,2781
10.23948226,2735
10.2503487,2744
10.26121514,2751
10.27208158,2811
10.28294802,2760
10.29381446,2845
10.3046809,2662
10.31554734,2750
10.32641378,2639
10.33728022,2807
10.34814666,2702
10.3590131,2724
10.36987954,2677
10.38074598,2777
10.39161242,2702
10.40247886,2746
10.4133453,2768
10.42421174,2688
10.43507818,2755
10.44594462,2793
10.45681106,2783
10.4676775,2747
10.47854394,2647
10.48941038,2755
10.50027682,2774
10.51114326,2680
10.5220097,2687
10.53287614,2777
10.54374258,2683
10.55460902,2775
10.56547546,2754
10.5763419,2695
10.58720834,2670
10.59807478,2743
10.60894122,2667
10.61980766,2785
10.6306741,2594
10.64154054,2742
10.65240698,2732
10.66327342,2721
10.67413986,2738
10.6850063,2811
10.69587274,2727
10.70673918,2771
10.71760562,2787
10.72847206,2727
10.7393385,2651
10.75020494,2824
10.76107138,2767
10.77193782,2723
10.78280426,2753
10.7936707,2826
10.80453714,2652
10.81540358,2680
10.82627002,2746
10.83713646,2864
10.8480029,2787
10.85886934,2751
10.86973578,2672
10.88060222,2759
10.89146866,2834
10.9023351,2672
10.91320154,2791
10.92406798,2819
10.93493442,2794
10.94580086,2818
10.9566673,2925
10.96753374,2861
10.97840018,2788
10.98926662,2860
11.00013306,2785
11.0109995,2912
11.02186594,2934
11.03273238,2890
11.04359882,2951
11.05446526,2878
11.0653317,3004
11.07619814,2935
11.08706458,2879
11.09793102,2987
11.10879746,2901
11.1196639,2908
11.13053034,2901
11.14139678,2920
11.15226322,2946
11.16312966,3010
11.1739961,3046
11.18486254,3055
11.19572898,3126
11.20659542,3152
11.21746186,3138
11.2283283,3208
11.23919474,3372
11.25006118,3347
11.26092762,3437
11.27179406,3420
11.2826605,3444
11.29352694,3564
11.30439338,3543
11.31525982,3576
11.32612626,3601
11.3369927,3639
11.34785914,3813
11.35872558,3832
11.36959202,3898
11.38045846,3926
11.3913249,3850
11.40219134,3724
11.41305778,3576
11.42392422,3508
11.43479066,3358
11.4456571,3279
11.45652354,3073
11.46738998,3023
11.47825642,2979
11.48912286,2947
11.4999893,2942
11.51085574,2871
11.52172218,2817
11.53258862,2808
11.54345506,2866
11.5543215,2834
11.56518794,2804
11.57605438,2815
11.58692082,2837
11.59778726,2885
11.6086537,2775
11.61952014,2825
11.63038658,2816
11.64125302,2840
11.65211946,2779
11.6629859,2792
11.67385234,2844
11.68471878,2896
11.69558522,2911
11.70645166,2913
11.7173181,2857
11.72818454,3008
11.73905098,2879
11.74991742,2890
11.76078386,2804
11.7716503,2859
11.78251674,2835
11.79338318,2853
11.80424962,2889
11.81511606,2762
11.8259825,2877
11.83684894,2944
11.84771538,2899
11.85858182,2823
11.86944826,2929
11.8803147,2876
11.89118114,2771
11.90204758,2831
11.91291402,2867
11.92378046,2889
11.9346469,2745
11.94551334,2879
11.95637978,2782
11.96724622,2989
11.97811266,2799
11.9889791,2859
11.99984554,2853
12.01071198,2888
12.02157842,2825
12.03244486,2799
12.0433113,2834
12.05417774,2788
12.06504418,2790
12.07591062,2823
12.08677706,2870
12.0976435,2803
12.10850994,2925
12.11937638,2749
12.13024282,2886
12.14110926,2887
12.1519757,2828
12.16284214,2904
12.17370858,2942
12.18457502,2891
12.19544146,2861
12.2063079,2908
12.21717434,2887
12.22804078,2868
12.23890722,2978
12.24977366,2912
12.2606401,2939
12.27150654,3040
12.28237298,2933
12.29323942,2918
12.30410586,2824
12.3149723,2885
12.32583874,2711
12.33670518,2964
12.34757162,2817
12.35843806,2869
12.3693045,2990
12.38017094,2820
12.39103738,2986
12.40190382,2993
12.41277026,2888
12.4236367,2891
12.43450314,3015
12.44536958,2898
12.45623602,3004
12.46710246,2983
12.4779689,2953
12.48883534,2932
12.49970178,2911
12.51056822,2952
12.52143466,3042
12.5323011,2911
12.54316754,2910
12.55403398,2965
12.56490042,2965
12.57576686,2927
12.5866333,2972
12.59749974,2956
12.60836618,2941
12.61923262,2979
12.63009906,3028
12.6409655,2965
12.65183194,2985
12.66269838,3088
12.67356482,3016
12.68443126,3065
12.6952977,2981
12.70616414,3128
12.71703058,3013
12.72789702,3064
12.73876346,3124
12.7496299,2992
12.76049634,3064
12.77136278,3013
12.78222922,2957
12.79309566,3042
12.8039621,3038
12.81482854,2981
12.82569498,3091
12.83656142,3058
12.84742786,3067
12.8582943,3080
12.86916074,3158
12.88002718,3109
12.89089362,3039
12.90176006,3095
12.9126265,3098
12.92349294,3194
12.93435938,3161
12.94522582,3144
12.95609226,3179
12.9669587,3177
12.97782514,3107
12.98869158,3218
12.99955802,3252
13.01042446,3093
13.0212909,3191
13.03215734,3186
13.04302378,3263
13.05389022,3163
13.06475666,3327
13.0756231,3381
13.08648954,3378
13.09735598,3386
13.10822242,3292
13.11908886,3240
13.1299553,3267
13.14082174,3250
13.15168818,3203
13.16255462,3267
13.17342106,3385
13.1842875,3328
13.19515394,3299
13.20602038,3402
13.21688682,3408
13.22775326,3425
13.2386197,3332
13.24948614,3436
13.26035258,3348
13.27121902,3532
13.28208546,3399
13.2929519,3547
13.30381834,3480
13.31468478,3504
13.32555122,3644
13.33641766,3471
13.3472841,3546
13.35815054,3592
13.36901698,3534
13.37988342,3574
13.39074986,3723
13.4016163,3696
13.41248274,3698
13.42334918,3774
13.43421562,3760
13.44508206,3817
13.4559485,3842
13.46681494,3874
13.47768138,3744
13.48854782,3829
13.49941426,3933
13.5102807,3964
13.52114714,4024
13.53201358,4067
13.54288002,4025
13.55374646,4149
13.5646129,4065
13.57547934,4059
13.58634578,4124
13.59721222,4266
13.60807866,4380
13.6189451,4272
13.62981154,4310
13.64067798,4309
13.65154442,4431
13.66241086,4494
13.6732773,4578
13.68414374,4623
13.69501018,4728
13.70587662,4785
13.71674306,4873
13.7276095,4764
13.73847594,4946
13.74934238,4959
13.76020882,4872
13.77107526,5185
13.7819417,5105
13.79280814,5353
13.80367458,5359
13.81454102,5439
13.82540746,5517
13.8362739,5514
13.84714034,5636
13.85800678,5487
13.86887322,5695
13.87973966,5843
13.8906061,5599
13.90147254,5923
13.91233898,6002
13.92320542,5933
13.93407186,5917
13.9449383,5762
13.95580474,6058
13.96667118,6117
13.97753762,5930
13.98840406,5860
13.9992705,5735
14.01013694,5877
14.02100338,5562
14.03186982,5491
14.04273626,5303
14.0536027,5187
14.06446914,5085
14.07533558,5017
14.08620202,4731
14.09706846,4598
14.1079349,4678
14.11880134,4412
14.12966778,4296
14.14053422,4325
14.15140066,4122
14.1622671,3973
14.17313354,4025
14.18399998,3916
14.19486642,3730
14.20573286,3745
14.2165993,3652
14.22746574,3642
14.23833218,3588
14.24919862,3547
14.26006506,3487
14.2709315,3479
14.28179794,3388
14.29266438,3294
14.30353082,3246
14.31439726,3245
14.3252637,3251
14.33613014,3231
14.34699658,3216
14.35786302,3146
14.36872946,3107
14.3795959,3111
14.39046234,2976
14.40132878,3161
14.41219522,3059
14.42306166,2863
14.4339281,3017
14.44479454,2989
14.45566098,2884
14.46652742,2979
14.47739386,2976
14.4882603,2842
14.49912674,2787
14.50999318,2856
14.52085962,2861
14.53172606,2881
14.5425925,2872
14.55345894,2727
14.56432538,2922
14.57519182,2847
14.58605826,2844
14.5969247,2924
14.60779114,2865
14.61865758,2822
14.62952402,2710
14.64039046,2851
14.6512569,2824
14.66212334,2726
14.67298978,2784
14.68385622,2752
14.69472266,2807
14.7055891,2706
14.71645554,2786
14.72732198,2811
14.73818842,2768
14.74905486,2647
14.7599213,2740
14.77078774,2673
14.78165418,2596
14.79252062,2766
14.80338706,2659
14.8142535,2621
14.82511994,2645
14.83598638,2578
14.84685282,2670
14.85771926,2676
14.8685857,2561
14.87945214,2531
14.89031858,2561
14.90118502,2577
14.91205146,2681
14.9229179,2631
14.93378434,2491
14.94465078,2608
14.95551722,2633
14.96638366,2609
14.9772501,2639
14.98811654,2478
14.99898298,2524
15.00984942,2568
15.02071586,2490
15.0315823,2548
15.04244874,2591
15.05331518,2499
15.06418162,2560
15.07504806,2537
15.0859145,2634
15.09678094,2527
15.10764738,2650
15.11851382,2548
15.12938026,2559
15.1402467,2544
15.15111314,2533
15.16197958,2420
15.17284602,2473
15.18371246,2493
15.1945789,2494
15.20544534,2488
15.21631178,2514
15.22717822,2539
15.23804466,2581
15.2489111,2580
15.25977754,2525
15.27064398,2538
15.28151042,2490
15.29237686,2551
15.3032433,2565
15.31410974,2486
15.32497618,2510
15.33584262,2585
15.34670906,2563
15.3575755,2449
15.36844194,2610
15.37930838,2551
15.39017482,2596
15.40104126,2510
15.4119077,2684
15.42277414,2510
15.43364058,2577
15.44450702,2497
15.45537346,2519
15.4662399,2550
15.47710634,2600
15.48797278,2550
15.49883922,2612
15.50970566,2527
15.5205721,2576
15.53143854,2516
15.54230498,2621
15.55317142,2481
15.56403786,2620
15.5749043,2529
15.58577074,2469
15.59663718,2530
15.60750362,2495
15.61837006,2705
15.6292365,2643
15.64010294,2622
15.65096938,2576
15.66183582,2596
15.67270226,2563
15.6835687,2715
15.69443514,2657
15.70530158,2760
15.71616802,2702
15.72703446,2707
15.7379009,2771
15.74876734,2792
15.75963378,2798
15.77050022,2877
15.78136666,2917
15.7922331,2938
15.80309954,3105
15.81396598,2936
15.82483242,3109
15.83569886,3120
15.8465653,3225
15.85743174,3239
15.86829818,3366
15.87916462,3361
15.89003106,3513
15.9008975,3650
15.91176394,3577
15.92263038,3664
15.93349682,3606
15.94436326,3814
15.9552297,3946
15.96609614,4085
15.97696258,4275
15.98782902,4443
15.99869546,4554
16.0095619,4808
16.02042834,5112
16.03129478,5332
16.04216122,5622
16.05302766,6000
16.0638941,6435
16.07476054,6835
16.08562698,7219
16.09649342,7814
16.10735986,8428
16.1182263,8841
16.12909274,9671
16.13995918,10203
16.15082562,11058
16.16169206,11804
16.1725585,12541
16.18342494,13554
16.19429138,14369
16.20515782,15348
16.21602426,16622
16.2268907,17575
16.23775714,18820
16.24862358,19421
16.25949002,20433
16.27035646,20949
16.2812229,20083
16.29208934,18731
16.30295578,16932
16.31382222,14831
16.32468866,12298
16.3355551,10146
16.34642154,8483
16.35728798,6913
16.36815442,5672
16.37902086,4894
16.3898873,4428
16.40075374,3934
16.41162018,3643
16.42248662,3391
16.43335306,3311
16.4442195,3218
16.45508594,3124
16.46595238,3125
16.47681882,3124
16.48768526,3047
16.4985517,3001
16.50941814,2867
16.52028458,2891
16.53115102,2937
16.54201746,2951
16.5528839,2832
16.56375034,2764
16.57461678,2809
16.58548322,2828
16.59634966,2876
16.6072161,2996
16.61808254,2837
16.62894898,2804
16.63981542,2885
16.65068186,2891
16.6615483,2855
16.67241474,2800
16.68328118,2939
16.69414762,2905
16.70501406,2878
16.7158805,3044
16.72674694,3003
16.73761338,3078
16.74847982,2873
16.75934626,3086
16.7702127,3185
16.78107914,3192
16.79194558,3174
16.80281202,3236
16.81367846,3418
16.8245449,3414
16.83541134,3353
16.84627778,3411
16.85714422,3473
16.86801066,3254
16.8788771,3312
16.88974354,3393
16.90060998,3259
16.91147642,3172
16.92234286,3134
16.9332093,3017
16.94407574,2880
16.95494218,2947
16.96580862,2730
16.97667506,2778
16.9875415,2726
16.99840794,2726
17.00927438,2692
17.02014082,2601
17.03100726,2544
17.0418737,2550
17.05274014,2531
17.06360658,2524
17.07447302,2464
17.08533946,2459
17.0962059,2362
17.10707234,2442
17.11793878,2441
17.12880522,2344
17.13967166,2372
17.1505381,2343
17.16140454,2468
17.17227098,2277
17.18313742,2392
17.19400386,2365
17.2048703,2398
17.21573674,2453
17.22660318,2336
17.23746962,2364
17.24833606,2365
17.2592025,2279
17.27006894,2301
17.28093538,2263
17.29180182,2358
17.30266826,2350
17.3135347,2383
17.32440114,2297
17.33526758,2260
17.34613402,2273
17.35700046,2440
17.3678669,2283
17.37873334,2257
17.38959978,2262
17.40046622,2319
17.41133266,2273
17.4221991,2354
17.43306554,2178
17.44393198,2260
17.45479842,2172
17.46566486,2175
17.4765313,2303
17.48739774,2270
17.49826418,2231
17.50913062,2299
17.51999706,2253
17.5308635,2214
17.54172994,2286
17.55259638,2204
17.56346282,2271
17.57432926,2232
17.5851957,2255
17.59606214,2160
17.60692858,2213
17.61779502,2274
17.62866146,2225
17.6395279,2238
17.65039434,2203
17.66126078,2270
17.67212722,2272
17.68299366,2213
17.6938601,2241
17.70472654,2254
17.71559298,2197
17.72645942,2142
17.73732586,2179
17.7481923,2298
17.75905874,2201
17.76992518,2259
17.78079162,2089
17.79165806,2185
17.8025245,2256
17.81339094,2115
17.82425738,2215
17.83512382,2166
17.84599026,2212
17.8568567,2289
17.86772314,2220
17.87858958,2118
17.88945602,2157
17.90032246,2178
17.9111889,2163
17.92205534,2200
17.93292178,2135
17.94378822,2172
17.95465466,2238
17.9655211,2141
17.97638754,2177
17.98725398,2086
17.99812042,2126
18.00898686,2199
18.0198533,2166
18.03071974,2151
18.04158618,2204
18.05245262,2208
18.06331906,2278
18.0741855,2199
18.08505194,2191
18.09591838,2179
18.10678482,2133
18.11765126,2161
18.1285177,2185
18.13938414,2194
18.15025058,2213
18.16111702,2213
18.17198346,2074
18.1828499,2239
18.19371634,2165
18.20458278,2170
18.21544922,2135
18.22631566,2108
18.2371821,2132
18.24804854,2111
18.25891498,2170
18.26978142,2112
18.28064786,2181
18.2915143,2076
18.30238074,2179
18.31324718,2103
18.32411362,2145
18.33498006,2077
18.3458465,2101
18.35671294,2145
18.36757938,2166
18.37844582,2129
18.38931226,2138
18.4001787,2204
18.41104514,2085
18.42191158,2111
18.43277802,2132
18.44364446,2085
18.4545109,2144
18.46537734,2099
18.47624378,2179
18.48711022,2118
18.49797666,2166
18.5088431,2202
18.51970954,2122
18.53057598,2252
18.54144242,2104
18.55230886,2145
18.5631753,2162
18.57404174,2182
18.58490818,2187
18.59577462,2118
18.60664106,2070
18.6175075,2094
18.62837394,2165
18.63924038,2163
18.65010682,2231
18.66097326,2074
18.6718397,2154
18.68270614,2027
18.69357258,2143
18.70443902,2125
18.71530546,2070
18.7261719,2146
18.73703834,2102
18.74790478,2194
18.75877122,2090
18.76963766,2116
18.7805041,2042
18.79137054,2078
18.80223698,2061
18.81310342,2145
18.82396986,2093
18.8348363,2191
18.84570274,2065
18.85656918,2097
18.86743562,2039
18.87830206,2117
18.8891685,2087
18.90003494,2077
18.91090138,2082
18.92176782,2074
18.93263426,2073
18.9435007,2026
18.95436714,2018
18.96523358,2102
18.97610002,2174
18.98696646,2086
18.9978329,2050
19.00869934,2169
19.01956578,1958
19.03043222,2005
19.04129866,2003
19.0521651,2046
19.06303154,2064
19.07389798,2008
19.08476442,2165
19.09563086,2105
19.1064973,2116
19.11736374,2057
19.12823018,2029
19.13909662,2110
19.14996306,2069
19.1608295,2096
19.17169594,1991
19.18256238,2157
19.19342882,2117
19.20429526,2071
19.2151617,2137
19.22602814,2073
19.23689458,2190
19.24776102,2000
19.25862746,2109
19.2694939,2126
19.28036034,2019
19.29122678,2118
19.30209322,2053
19.31295966,2057
19.3238261,2183
19.33469254,2153
19.34555898,1988
19.35642542,1995
19.36729186,2096
19.3781583,2071
19.38902474,2109
19.39989118,2064
19.41075762,2035
19.42162406,2031
19.4324905,2032
19.44335694,2119
19.45422338,2089
19.46508982,2079
19.47595626,2011
19.4868227,2109
19.49768914,2048
19.50855558,2122
19.51942202,2087
19.53028846,2029
19.5411549,2113
19.55202134,2070
19.56288778,1994
19.57375422,2071
19.58462066,2027
19.5954871,2085
19.60635354,2060
19.61721998,2068
19.62808642,2084
19.63895286,2015
19.6498193,2065
19.66068574,1968
19.67155218,2016
19.68241862,2151
19.69328506,1954
19.7041515,1948
19.71501794,2037
19.72588438,2002
19.73675082,2038
19.74761726,2014
19.7584837,2063
19.76935014,2071
19.78021658,2023
19.79108302,1967
19.80194946,2105
19.8128159,2007
19.82368234,1997
19.83454878,2048
19.84541522,1985
19.85628166,2096
19.8671481,1967
19.87801454,1978
19.88888098,1986
19.89974742,2120
19.91061386,2074
19.9214803,2139
19.93234674,1972
19.94321318,2116
19.95407962,2014
19.96494606,2087
19.9758125,1960
19.98667894,2061
19.99754538,1993
20.00841182,2077
20.01927826,2047
20.0301447,2055
20.04101114,2093
20.05187758,2124
20.06274402,2013
20.07361046,2074
20.0844769,2081
20.09534334,2043
20.10620978,2095
20.11707622,2083
20.12794266,2127
20.1388091,2206
20.14967554,2111
20.16054198,2133
20.17140842,2047
20.18227486,2126
20.1931413,2081
20.20400774,2096
20.21487418,2063
20.22574062,2171
20.23660706,2127
20.2474735,2132
20.25833994,2132
20.26920638,2121
20.28007282,2146
20.29093926,2077
20.3018057,2202
20.31267214,2142
20.32353858,2113
20.33440502,2153
20.34527146,2123
20.3561379,2085
20.36700434,2074
20.37787078,2194
20.38873722,2118
20.39960366,2077
20.4104701,2075
20.42133654,2110
20.43220298,2037
20.44306942,2089
20.45393586,1981
20.4648023,2130
20.47566874,2129
20.48653518,2026
20.49740162,2076
20.50826806,2039
20.5191345,2098
20.53000094,2140
20.54086738,2088
20.55173382,2047
20.56260026,2093
20.5734667,2092
20.58433314,2143
20.59519958,2081
20.60606602,2078
20.61693246,2140
20.6277989,2097
20.63866534,2059
20.64953178,2025
20.66039822,2040
20.67126466,2149
20.6821311,2116
20.69299754,2102
20.70386398,2135
20.71473042,2148
20.72559686,2189
20.7364633,2162
20.74732974,2259
20.75819618,2157
20.76906262,2208
20.77992906,2180
20.7907955,2234
20.80166194,2153
20.81252838,2337
20.82339482,2295
20.83426126,2364
20.8451277,2388
20.85599414,2393
20.86686058,2340
20.87772702,2374
20.88859346,2310
20.8994599,2314
20.91032634,2278
20.92119278,2341
20.93205922,2348
20.94292566,2342
20.9537921,2370
20.96465854,2282
20.97552498,2208
20.98639142,2229
20.99725786,2074
21.0081243,2235
21.01899074,2306
21.02985718,2131
21.04072362,2161
21.05159006,2286
21.0624565,2179
21.07332294,2121
21.08418938,2157
21.09505582,2071
21.10592226,2056
21.1167887,2108
21.12765514,2056
21.13852158,2049
21.14938802,2123
21.16025446,1999
21.1711209,1987
21.18198734,1995
21.19285378,2030
21.20372022,2081
21.21458666,2107
21.2254531,2016
21.23631954,2001
21.24718598,2118
21.25805242,2119
21.26891886,2006
21.2797853,2062
21.29065174,2003
21.30151818,2113
21.31238462,1928
21.32325106,2068
21.3341175,2056
21.34498394,2080
21.35585038,2040
21.36671682,2080
21.37758326,2080
21.3884497,1998
21.39931614,2026
21.41018258,2120
21.42104902,2100
21.43191546,2071
21.4427819,2041
21.45364834,2114
21.46451478,2061
21.47538122,2116
21.48624766,2146
21.4971141,2024
21.50798054,2155
21.51884698,2094
21.52971342,2101
21.54057986,2048
21.5514463,2086
21.56231274,2029
21.57317918,2047
21.58404562,2027
21.59491206,2032
21.6057785,2045
21.61664494,2060
21.62751138,2066
21.63837782,2008
21.64924426,2016
21.6601107,2046
21.67097714,2031
21.68184358,2043
21.69271002,1995
21.70357646,1990
21.7144429,2041
21.72530934,2018
21.73617578,1997
21.74704222,2024
21.75790866,1994
21.7687751,2131
21.77964154,2001
21.79050798,2072
21.80137442,2134
21.81224086,2025
21.8231073,1989
21.83397374,2005
21.84484018,2039
21.85570662,1992
21.86657306,2023
21.8774395,2007
21.88830594,2102
21.89917238,2064
21.91003882,1977
21.92090526,2130
21.9317717,2051
21.94263814,2094
21.95350458,1980
21.96437102,2027
21.97523746,2012
21.9861039,2047
21.99697034,2101
22.00783678,2050
22.01870322,2080
22.02956966,1892
22.0404361,2014
22.05130254,2033
22.06216898,2027
22.07303542,2022
22.08390186,2004
22.0947683,2029
22.10563474,2032
22.11650118,2037
22.12736762,2032
22.13823406,2054
22.1491005,2079
22.15996694,2083
22.17083338,1917
22.18169982,2049
22.19256626,2049
22.2034327,2045
22.21429914,2084
22.22516558,1993
22.23603202,2070
22.24689846,2123
22.2577649,2040
22.26863134,2156
22.27949778,2195
22.29036422,2150
22.30123066,2112
22.3120971,2058
22.32296354,2082
22.33382998,2132
22.34469642,2101
22.35556286,2175
22.3664293,2204
22.37729574,2116
22.38816218,2160
22.39902862,2213
22.40989506,2161
22.4207615,2154
22.43162794,2212
22.44249438,2176
22.45336082,2322
22.46422726,2325
22.4750937,2419
22.48596014,2361
22.49682658,2347
22.50769302,2408
22.51855946,2379
22.5294259,2393
22.54029234,2402
22.55115878,2397
22.56202522,2451
22.57289166,2439
22.5837581,2466
22.59462454,2561
22.60549098,2462
22.61635742,2542
22.62722386,2641
22.6380903,2695
22.64895674,2736
22.65982318,2750
22.67068962,2718
22.68155606,2819
22.6924225,2800
22.70328894,2965
22.71415538,2917
22.72502182,3007
22.73588826,3004
22.7467547,2997
22.75762114,3129
22.76848758,3007
22.77935402,3167
22.79022046,3189
22.8010869,3285
22.81195334,3376
22.82281978,3347
22.83368622,3419
22.84455266,3528
22.8554191,3635
22.86628554,3815
22.87715198,3994
22.88801842,3921
22.89888486,4210
22.9097513,4291
22.92061774,4573
22.93148418,4719
22.94235062,5014
22.95321706,5160
22.9640835,5426
22.97494994,5384
22.98581638,5520
22.99668282,5381
23.00754926,5179
23.0184157,4927
23.02928214,4651
23.04014858,4420
23.05101502,4068
23.06188146,3858
23.0727479,3532
23.08361434,3322
23.09448078,3150
23.10534722,3077
23.11621366,3014
23.1270801,2881
23.13794654,2923
23.14881298,2878
23.15967942,2901
23.17054586,2923
23.1814123,2831
23.19227874,2836
23.20314518,2894
23.21401162,2891
23.22487806,2936
23.2357445,2996
23.24661094,2803
23.25747738,3000
23.26834382,2929
23.27921026,2786
23.2900767,2825
23.30094314,2774
23.31180958,2749
23.32267602,2746
23.33354246,2817
23.3444089,2710
23.35527534,2646
23.36614178,2752
23.37700822,2671
23.38787466,2657
23.3987411,2657
23.40960754,2745
23.42047398,2653
23.43134042,2689
23.44220686,2698
23.4530733,2578
23.46393974,2678
23.47480618,2621
23.48567262,2606
23.49653906,2619
23.5074055,2753
23.51827194,2627
23.52913838,2732
23.54000482,2687
23.55087126,2768
23.5617377,2653
23.57260414,2707
23.58347058,2823
23.59433702,2750
23.60520346,2715
23.6160699,2737
23.62693634,2937
23.63780278,2827
23.64866922,2878
23.65953566,2903
23.6704021,2836
23.68126854,2937
23.69213498,3047
23.70300142,3112
23.71386786,3109
23.7247343,3356
23.73560074,3279
23.74646718,3447
23.75733362,3576
23.76820006,3536
23.7790665,3753
23.78993294,3734
23.80079938,3921
23.81166582,3895
23.82253226,4101
23.8333987,4112
23.84426514,4152
23.85513158,4175
23.86599802,4301
23.87686446,4288
23.8877309,4047
23.89859734,4072
23.90946378,3948
23.92033022,3917
23.93119666,3566
23.9420631,3513
23.95292954,3313
23.96379598,3193
23.97466242,3061
23.98552886,2963
23.9963953,2939
24.00726174,2851
24.01812818,2761
24.02899462,2754
24.03986106,2739
24.0507275,2613
24.06159394,2589
24.07246038,2656
24.08332682,2677
24.09419326,2569
24.1050597,2691
24.11592614,2486
24.12679258,2708
24.13765902,2579
24.14852546,2578
24.1593919,2636
24.17025834,2574
24.18112478,2645
24.19199122,2493
24.20285766,2587
24.2137241,2589
24.22459054,2562
24.23545698,2614
24.24632342,2582
24.25718986,2486
24.2680563,2624
24.27892274,2580
24.28978918,2557
24.30065562,2631
24.31152206,2539
24.3223885,2587
24.33325494,2678
24.34412138,2595
24.35498782,2613
24.36585426,2688
24.3767207,2658
24.38758714,2650
24.39845358,2640
24.40932002,2793
24.42018646,2680
24.4310529,2603
24.44191934,2734
24.45278578,2732
24.46365222,2729
24.47451866,2589
24.4853851,2771
24.49625154,2655
24.50711798,2701
24.51798442,2680
24.52885086,2679
24.5397173,2704
24.55058374,2649
24.56145018,2705
24.57231662,2626
24.58318306,2673
24.5940495,2664
24.60491594,2688
24.61578238,2783
24.62664882,2691
24.63751526,2671
24.6483817,2619
24.65924814,2715
24.67011458,2763
24.68098102,2749
24.69184746,2681
24.7027139,2705
24.71358034,2659
24.72444678,2669
24.73531322,2697
24.74617966,2705
24.7570461,2784
24.76791254,2750
24.77877898,2597
24.78964542,2826
24.80051186,2837
24.8113783,2685
24.82224474,2685
24.83311118,2909
24.84397762,2851
24.85484406,2954
24.8657105,2879
24.87657694,2902
24.88744338,3045
24.89830982,2897
24.90917626,3013
24.9200427,3050
24.93090914,3108
24.94177558,3100
24.95264202,3232
24.96350846,3172
24.9743749,3318
24.98524134,3367
24.99610778,3355
25.00697422,3390
25.01784066,3413
25.0287071,3551
25.03957354,3583
25.05043998,3625
25.06130642,3645
25.07217286,3857
25.0830393,3782
25.09390574,3831
25.10477218,3781
25.11563862,3788
25.12650506,3793
25.1373715,3837
25.14823794,3941
25.15910438,3900
25.16997082,3811
25.18083726,3732
25.1917037,3830
25.20257014,3620
25.21343658,3580
25.22430302,3523
25.23516946,3451
25.2460359,3442
25.25690234,3272
25.26776878,3294
25.27863522,3231
25.28950166,3172
25.3003681,2973
25.31123454,3018
25.32210098,2923
25.33296742,2909
25.34383386,2710
25.3547003,2683
25.36556674,2656
25.37643318,2599
25.38729962,2566
25.39816606,2534
25.4090325,2549
25.41989894,2513
25.43076538,2597
25.44163182,2530
25.45249826,2485
25.4633647,2486
25.47423114,2459
25.48509758,2440
25.49596402,2414
25.50683046,2420
25.5176969,2454
25.52856334,2442
25.53942978,2432
25.55029622,2455
25.56116266,2432
25.5720291,2310
25.58289554,2387
25.59376198,2424
25.60462842,2384
25.61549486,2390
25.6263613,2414
25.63722774,2345
25.64809418,2371
25.65896062,2399
25.66982706,2343
25.6806935,2439
25.69155994,2428
25.70242638,2362
25.71329282,2358
25.72415926,2415
25.7350257,2335
25.74589214,2411
25.75675858,2374
25.76762502,2315
25.77849146,2382
25.7893579,2349
25.80022434,2422
25.81109078,2445
25.82195722,2362
25.83282366,2413
25.8436901,2396
25.85455654,2492
25.86542298,2431
25.87628942,2497
25.88715586,2443
25.8980223,2552
25.90888874,2583
25.91975518,2698
25.93062162,2576
25.94148806,2823
25.9523545,2799
25.96322094,2812
25.97408738,2991
25.98495382,3053
25.99582026,3211
26.0066867,3313
26.01755314,3578
26.02841958,3720
26.03928602,3762
26.05015246,4063
26.0610189,4207
26.07188534,4225
26.08275178,4330
26.09361822,4364
26.10448466,4179
26.1153511,3897
26.12621754,3854
26.13708398,3641
26.14795042,3449
26.15881686,3249
26.1696833,2980
26.18054974,2820
26.19141618,2647
26.20228262,2593
26.21314906,2481
26.2240155,2395
26.23488194,2388
26.24574838,2428
26.25661482,2348
26.26748126,2226
26.2783477,2340
26.28921414,2302
26.30008058,2329
26.31094702,2235
26.32181346,2266
26.3326799,2274
26.34354634,2244
26.35441278,2196
26.36527922,2156
26.37614566,2317
26.3870121,2220
26.39787854,2202
26.40874498,2213
26.41961142,2223
26.43047786,2143
26.4413443,2198
26.45221074,2150
26.46307718,2247
26.47394362,2221
26.48481006,2229
26.4956765,2196
26.50654294,2200
26.51740938,2271
26.52827582,2194
26.53914226,2195
26.5500087,2186
26.56087514,2208
26.57174158,2189
26.58260802,2170
26.59347446,2183
26.6043409,2247
26.61520734,2206
26.62607378,2171
26.63694022,2068
26.64780666,2137
26.6586731,2152
26.66953954,2239
26.68040598,2213
26.69127242,2236
26.70213886,2206
26.7130053,2134
26.72387174,2199
26.73473818,2126
26.74560462,2197
26.75647106,2153
26.7673375,2088
26.77820394,2165
26.78907038,2120
26.79993682,2140
26.81080326,2261
26.8216697,2194
26.83253614,2252
26.84340258,2162
26.85426902,2119
26.86513546,2221
26.8760019,2221
26.88686834,2137
26.89773478,2159
26.90860122,2253
26.91946766,2204
26.9303341,2199
26.94120054,2171
26.95206698,2190
26.96293342,2248
26.97379986,2228
26.9846663,2380
26.99553274,2312
27.00639918,2398
27.01726562,2392
27.02813206,2324
27.0389985,2400
27.04986494,2361
27.06073138,2394
27.07159782,2390
27.08246426,2275
27.0933307,2368
27.10419714,2277
27.11506358,2411
27.12593002,2307
27.13679646,2338
27.1476629,2280
27.15852934,2238
27.16939578,2397
27.18026222,2228
27.19112866,2326
27.2019951,2288
27.21286154,2241
27.22372798,2288
27.23459442,2312
27.24546086,2304
27.2563273,2234
27.26719374,2329
27.27806018,2328
27.28892662,2352
27.29979306,2234
27.3106595,2283
27.32152594,2363
27.33239238,2340
27.34325882,2248
27.35412526,2323
27.3649917,2289
27.37585814,2343
27.38672458,2211
27.39759102,2365
27.40845746,2264
27.4193239,2429
27.43019034,2426
27.44105678,2431
27.45192322,2483
27.46278966,2358
27.4736561,2391
27.48452254,2548
27.49538898,2426
27.50625542,2459
27.51712186,2429
27.5279883,2392
27.53885474,2452
27.54972118,2449
27.56058762,2399
27.57145406,2384
27.5823205,2504
27.59318694,2395
27.60405338,2511
27.61491982,2442
27.62578626,2526
27.6366527,2539
27.64751914,2683
27.65838558,2557
27.66925202,2505
27.68011846,2623
27.6909849,2541
27.70185134,2592
27.71271778,2564
27.72358422,2818
27.73445066,2703
27.7453171,2735
27.75618354,2741
27.76704998,2768
27.77791642,2753
27.78878286,2755
27.7996493,2823
27.81051574,2732
27.82138218,2691
27.83224862,2730
27.84311506,2649
27.8539815,2711
27.86484794,2589
27.87571438,2558
27.88658082,2619
27.89744726,2588
27.9083137,2513
27.91918014,2548
27.93004658,2621
27.94091302,2574
27.95177946,2643
27.9626459,2636
27.97351234,2638
27.98437878,2658
27.99524522,2558
28.00611166,2655
28.0169781,2601
28.02784454,2555
28.03871098,2730
28.04957742,2656
28.06044386,2745
28.0713103,2720
28.08217674,2599
28.09304318,2758
28.10390962,2636
28.11477606,2681
28.1256425,2718
28.13650894,2638
28.14737538,2628
28.15824182,2639
28.16910826,2641
28.1799747,2749
28.19084114,2819
28.20170758,2789
28.21257402,2628
28.22344046,2620
28.2343069,2709
28.24517334,2772
28.25603978,2776
28.26690622,2851
28.27777266,2723
28.2886391,2737
28.29950554,2758
28.31037198,2912
28.32123842,2853
28.33210486,2914
28.3429713,3062
28.35383774,2946
28.36470418,3065
28.37557062,3132
28.38643706,3134
28.3973035,3217
28.40816994,3299
28.41903638,3354
28.42990282,3475
28.44076926,3512
28.4516357,3564
28.46250214,3609
28.47336858,3614
28.48423502,3703
28.49510146,3622
28.5059679,3717
28.51683434,3900
28.52770078,3781
28.53856722,3801
28.54943366,3980
28.5603001,4011
28.57116654,4089
28.58203298,4058
28.59289942,3976
28.60376586,4001
28.6146323,4052
28.62549874,4170
28.63636518,4084
28.64723162,4096
28.65809806,4064
28.6689645,4020
28.67983094,3898
28.69069738,3775
28.70156382,3731
28.71243026,3688
28.7232967,3696
28.73416314,3531
28.74502958,3463
28.75589602,3262
28.76676246,3268
28.7776289,3255
28.78849534,3227
28.79936178,3131
28.81022822,3083
28.82109466,3089
28.8319611,2995
28.84282754,3063
28.85369398,2919
28.86456042,2925
28.87542686,3007
28.8862933,2855
28.89715974,2920
28.90802618,2770
28.91889262,2864
28.92975906,2880
28.9406255,2810
28.95149194,2875
28.96235838,2870
28.97322482,2879
28.98409126,2766
28.9949577,2743
29.00582414,2712
29.01669058,2745
29.02755702,2793
29.03842346,2645
29.0492899,2738
29.06015634,2730
29.07102278,2615
29.08188922,2678
29.09275566,2619
29.1036221,2638
29.11448854,2568
29.12535498,2602
29.13622142,2542
29.14708786,2561
29.1579543,2521
29.16882074,2495
29.17968718,2552
29.19055362,2419
29.20142006,2432
29.2122865,2375
29.22315294,2392
29.23401938,2363
29.24488582,2352
29.25575226,2293
29.2666187,2473
29.27748514,2284
29.28835158,2327
29.29921802,2289
29.31008446,2360
29.3209509,2338
29.33181734,2331
29.34268378,2360
29.35355022,2257
29.36441666,2369
29.3752831,2321
29.38614954,2272
29.39701598,2388
29.40788242,2287
29.41874886,2198
29.4296153,2305
29.44048174,2249
29.45134818,2330
29.46221462,2380
29.47308106,2266
29.4839475,2286
29.49481394,2240
29.50568038,2280
29.51654682,2398
29.52741326,2245
29.5382797,2320
29.54914614,2252
29.56001258,2370
29.57087902,2322
29.58174546,2253
29.5926119,2301
29.60347834,2268
29.61434478,2280
29.62521122,2251
29.63607766,2157
29.6469441,2198
29.65781054,2141
29.66867698,2218
29.67954342,2121
29.69040986,2235
29.7012763,2160
29.71214274,2190
29.72300918,2111
29.73387562,2101
29.74474206,2186
29.7556085,2219
29.76647494,2193
29.77734138,2258
29.78820782,2181
29.79907426,2290
29.8099407,2164
29.82080714,2229
29.83167358,2304
29.84254002,2219
29.85340646,2208
29.8642729,2216
29.87513934,2257
29.88600578,2217
29.89687222,2176
29.90773866,2316
29.9186051,2236
29.92947154,2202
29.94033798,2160
29.95120442,2168
29.96207086,2202
29.9729373,2195
29.98380374,2203
29.99467018,2231
