"Angle","Counts"
3.00243322,26542
3.01329966,26612
3.0241661,26193
3.03503254,25800
3.04589898,25612
3.05676542,25482
3.06763186,25006
3.0784983,24790
3.08936474,24428
3.10023118,24272
3.11109762,23785
3.12196406,23911
3.1328305,23229
3.14369694,23310
3.15456338,22993
3.16542982,22881
3.17629626,22604
3.1871627,22345
3.19802914,22045
3.20889558,22023
3.21976202,21796
3.23062846,21396
3.2414949,21357
3.25236134,21219
3.26322778,21068
3.27409422,20815
3.28496066,20399
3.2958271,20615
3.30669354,20405
3.31755998,20308
3.32842642,19719
3.33929286,19899
3.3501593,19441
3.36102574,19291
3.37189218,19312
3.38275862,18995
3.39362506,18866
3.4044915,18611
3.41535794,18539
3.42622438,18433
3.43709082,18106
3.44795726,18387
3.4588237,17991
3.46969014,17902
3.48055658,17691
3.49142302,17624
3.50228946,17448
3.5131559,17436
3.52402234,17205
3.53488878,17104
3.54575522,17044
3.55662166,16959
3.5674881,16835
3.57835454,16530
3.58922098,16455
3.60008742,16500
3.61095386,16242
3.6218203,16387
3.63268674,16179
3.64355318,16294
3.65441962,16019
3.66528606,16052
3.6761525,15826
3.68701894,15506
3.69788538,15769
3.70875182,15388
3.71961826,15640
3.7304847,15382
3.74135114,15197
3.75221758,15331
3.76308402,14950
3.77395046,14997
3.7848169,14857
3.79568334,14839
3.80654978,14808
3.81741622,14784
3.82828266,14751
3.8391491,14715
3.85001554,14506
3.86088198,14371
3.87174842,14457
3.88261486,14335
3.8934813,13932
3.90434774,14244
3.91521418,14058
3.92608062,13929
3.93694706,13852
3.9478135,13896
3.95867994,13913
3.96954638,13647
3.98041282,13768
3.99127926,13652
4.0021457,13406
4.01301214,13504
4.02387858,13618
4.03474502,13427
4.04561146,13400
4.0564779,13411
4.06734434,13356
4.07821078,13383
4.08907722,13201
4.09994366,13159
4.1108101,13196
4.12167654,13020
4.13254298,12984
4.14340942,12926
4.15427586,12851
4.1651423,12758
4.17600874,12972
4.18687518,12848
4.19774162,12773
4.20860806,12767
4.2194745,12550
4.23034094,12782
4.24120738,12745
4.25207382,12788
4.26294026,12599
4.2738067,12527
4.28467314,12479
4.29553958,12371
4.30640602,12503
4.31727246,12311
4.3281389,12287
4.33900534,12648
4.34987178,12398
4.36073822,12131
4.37160466,12411
4.3824711,12291
4.39333754,12306
4.40420398,12396
4.41507042,12360
4.42593686,12299
4.4368033,12409
4.44766974,12156
4.45853618,12107
4.46940262,12076
4.48026906,12299
4.4911355,11940
4.50200194,11958
4.51286838,12041
4.52373482,12101
4.53460126,11982
4.5454677,12055
4.55633414,12063
4.56720058,11857
4.57806702,11865
4.58893346,11758
4.5997999,12011
4.61066634,12009
4.62153278,12031
4.63239922,12188
4.64326566,11958
4.6541321,11896
4.66499854,11881
4.67586498,11896
4.68673142,12006
4.69759786,11792
4.7084643,11957
4.71933074,12060
4.73019718,11908
4.74106362,12029
4.75193006,11785
4.7627965,12074
4.77366294,12143
4.78452938,11936
4.79539582,11868
4.80626226,12119
4.8171287,12025
4.82799514,11957
4.83886158,11846
4.84972802,12031
4.86059446,11956
4.8714609,12149
4.88232734,12102
4.89319378,12217
4.90406022,12171
4.91492666,12175
4.9257931,12069
4.93665954,12255
4.94752598,12101
4.95839242,12259
4.96925886,12024
4.9801253,11990
4.99099174,12451
5.00185818,12181
5.01272462,12291
5.02359106,12287
5.0344575,12123
5.04532394,12340
5.05619038,12179
5.06705682,12340
5.07792326,12297
5.0887897,12398
5.09965614,12320
5.11052258,12404
5.12138902,12312
5.13225546,12333
5.1431219,12475
5.15398834,12367
5.16485478,12469
5.17572122,12512
5.18658766,12411
5.1974541,12292
5.20832054,12512
5.21918698,12796
5.23005342,12432
5.24091986,12551
5.2517863,12468
5.26265274,12534
5.27351918,12856
5.28438562,12724
5.29525206,12926
5.3061185,12376
5.31698494,12201
5.32785138,12595
5.33871782,12593
5.34958426,12941
5.3604507,12794
5.37131714,12745
5.38218358,12877
5.39305002,12655
5.40391646,12875
5.4147829,12892
5.42564934,13046
5.43651578,12908
5.44738222,12736
5.45824866,12915
5.4691151,12951
5.47998154,12868
5.49084798,12998
5.50171442,13136
5.51258086,13074
5.5234473,12980
5.53431374,13074
5.54518018,13094
5.55604662,13098
5.56691306,12929
5.5777795,13282
5.58864594,13031
5.59951238,13240
5.61037882,13233
5.62124526,13206
5.6321117,13041
5.64297814,13577
5.65384458,13069
5.66471102,13260
5.67557746,13294
5.6864439,13347
5.69731034,13128
5.70817678,13505
5.71904322,13316
5.72990966,13466
5.7407761,13236
5.75164254,13622
5.76250898,13420
5.77337542,13319
5.78424186,13382
5.7951083,13421
5.80597474,13519
5.81684118,13539
5.82770762,13584
5.83857406,13599
5.8494405,13449
5.86030694,13435
5.87117338,13597
5.88203982,13782
5.89290626,13770
5.9037727,13800
5.91463914,13837
5.92550558,13740
5.93637202,13741
5.94723846,14031
5.9581049,13879
5.96897134,13815
5.97983778,13874
5.99070422,13814
6.00157066,14005
6.0124371,13894
6.02330354,13924
6.03416998,14076
6.04503642,13948
6.05590286,14105
6.0667693,14058
6.07763574,14390
6.08850218,13874
6.09936862,14070
6.11023506,13978
6.1211015,14013
6.13196794,14123
6.14283438,14111
6.15370082,13998
6.16456726,14058
6.1754337,14118
6.18630014,14147
6.19716658,14060
6.20803302,14076
6.21889946,14109
6.2297659,14127
6.24063234,14482
6.25149878,14023
6.26236522,14298
6.27323166,14205
6.2840981,14222
6.29496454,14149
6.30583098,14237
6.31669742,14133
6.32756386,14019
6.3384303,14033
6.34929674,14134
6.36016318,14451
6.37102962,14115
6.38189606,14256
6.3927625,14371
6.40362894,14367
6.41449538,14211
6.42536182,14376
6.43622826,14265
6.4470947,14226
6.45796114,14354
6.46882758,14331
6.47969402,14083
6.49056046,14319
6.5014269,14198
6.51229334,14409
6.52315978,14321
6.53402622,14523
6.54489266,13973
6.5557591,14135
6.56662554,14247
6.57749198,14421
6.58835842,14246
6.59922486,14221
6.6100913,14334
6.62095774,14226
6.63182418,14222
6.64269062,14192
6.65355706,14098
6.6644235,14015
6.67528994,14428
6.68615638,14325
6.69702282,14061
6.70788926,14043
6.7187557,14187
6.72962214,14123
6.74048858,14024
6.75135502,13735
6.76222146,14297
6.7730879,14226
6.78395434,13830
6.79482078,14056
6.80568722,14228
6.81655366,14006
6.8274201,14037
6.83828654,14090
6.84915298,14001
6.86001942,14292
6.87088586,14109
6.8817523,13804
6.89261874,13930
6.90348518,14023
6.91435162,13843
6.92521806,13918
6.9360845,13796
6.94695094,13869
6.95781738,13918
6.96868382,13635
6.97955026,13659
6.9904167,13876
7.00128314,13614
7.01214958,13817
7.02301602,13545
7.03388246,13661
7.0447489,13484
7.05561534,13613
7.06648178,13352
7.07734822,13675
7.08821466,13590
7.0990811,13717
7.10994754,13566
7.12081398,13438
7.13168042,13293
7.14254686,13262
7.1534133,13572
7.16427974,13270
7.17514618,13234
7.18601262,13308
7.19687906,13236
7.2077455,13331
7.21861194,13192
7.22947838,13148
7.24034482,13353
7.25121126,12954
7.2620777,13069
7.27294414,13071
7.28381058,13093
7.29467702,13093
7.30554346,12950
7.3164099,12932
7.32727634,12923
7.33814278,13194
7.34900922,12838
7.35987566,12939
7.3707421,12967
7.38160854,12785
7.39247498,12924
7.40334142,12843
7.41420786,12746
7.4250743,12852
7.43594074,12827
7.44680718,12815
7.45767362,12790
7.46854006,12743
7.4794065,12586
7.49027294,12875
7.50113938,12443
7.51200582,12424
7.52287226,12492
7.5337387,12292
7.54460514,12514
7.55547158,12274
7.56633802,12402
7.57720446,12414
7.5880709,12372
7.59893734,12198
7.60980378,12184
7.62067022,12415
7.63153666,12151
7.6424031,12194
7.65326954,12194
7.66413598,12179
7.67500242,11988
7.68586886,12234
7.6967353,12148
7.70760174,12038
7.71846818,11974
7.72933462,12144
7.74020106,11874
7.7510675,11861
7.76193394,11998
7.77280038,12086
7.78366682,11908
7.79453326,11970
7.8053997,11646
7.81626614,11828
7.82713258,11913
7.83799902,11838
7.84886546,11926
7.8597319,11811
7.87059834,11749
7.88146478,11852
7.89233122,11591
7.90319766,11620
7.9140641,11564
7.92493054,11569
7.93579698,11570
7.94666342,11540
7.95752986,11507
7.9683963,11722
7.97926274,11625
7.99012918,11564
8.00099562,11375
8.01186206,11478
8.0227285,11595
8.03359494,11498
8.04446138,11462
8.05532782,11591
8.06619426,11417
8.0770607,11204
8.08792714,11419
8.09879358,11376
8.10966002,11155
8.12052646,11249
8.1313929,11217
8.14225934,11219
8.15312578,11254
8.16399222,11068
8.17485866,11246
8.1857251,11012
8.19659154,11107
8.20745798,10992
8.21832442,10933
8.22919086,11106
8.2400573,11042
8.25092374,11043
8.26179018,10991
8.27265662,10882
8.28352306,11030
8.2943895,10732
8.30525594,10924
8.31612238,10877
8.32698882,10891
8.33785526,10642
8.3487217,10766
8.35958814,10835
8.37045458,10812
8.38132102,10809
8.39218746,10520
8.4030539,10698
8.41392034,10843
8.42478678,10448
8.43565322,10668
8.44651966,10783
8.4573861,10618
8.46825254,10899
8.47911898,10633
8.48998542,10665
8.50085186,10640
8.5117183,10617
8.52258474,10452
8.53345118,10451
8.54431762,10414
8.55518406,10772
8.5660505,10443
8.57691694,10505
8.58778338,10499
8.59864982,10438
8.60951626,10363
8.6203827,10509
8.63124914,10359
8.64211558,10312
8.65298202,10424
8.66384846,10268
8.6747149,10245
8.68558134,10456
8.69644778,10261
8.70731422,10179
8.71818066,10222
8.7290471,10446
8.73991354,10199
8.75077998,10327
8.76164642,10169
8.77251286,10258
8.7833793,10201
8.79424574,10336
8.80511218,10017
8.81597862,10341
8.82684506,10254
8.8377115,10188
8.84857794,10177
8.85944438,10042
8.87031082,10074
8.88117726,10154
8.8920437,10318
8.90291014,10150
8.91377658,10203
8.92464302,9950
8.93550946,10175
8.9463759,10246
8.95724234,10171
8.96810878,10019
8.97897522,10181
8.98984166,10010
9.0007081,10186
9.01157454,10027
9.02244098,10190
9.03330742,10139
9.04417386,10208
9.0550403,10055
9.06590674,10076
9.07677318,10095
9.08763962,10089
9.09850606,9876
9.1093725,10191
9.12023894,10039
9.13110538,9976
9.14197182,10002
9.15283826,10094
9.1637047,10012
9.17457114,10206
9.18543758,10079
9.19630402,9980
9.20717046,9978
9.2180369,10174
9.22890334,10106
9.23976978,10137
9.25063622,10067
9.26150266,10018
9.2723691,10197
9.28323554,10214
9.29410198,10122
9.30496842,10210
9.31583486,10101
9.3267013,10076
9.33756774,10273
9.34843418,10003
9.35930062,9899
9.37016706,10078
9.3810335,10134
9.39189994,10283
9.40276638,9957
9.41363282,10250
9.42449926,10429
9.4353657,10206
9.44623214,10250
9.45709858,10384
9.46796502,10238
9.47883146,10232
9.4896979,10209
9.50056434,10394
9.51143078,10429
9.52229722,10367
9.53316366,10468
9.5440301,10404
9.55489654,10470
9.56576298,10509
9.57662942,10393
9.58749586,10547
9.5983623,10566
9.60922874,10435
9.62009518,10538
9.63096162,10675
9.64182806,10559
9.6526945,10543
9.66356094,10726
9.67442738,10610
9.68529382,10791
9.69616026,10853
9.7070267,10964
9.71789314,10908
9.72875958,10883
9.73962602,11111
9.75049246,11021
9.7613589,10980
9.77222534,11145
9.78309178,11053
9.79395822,10967
9.80482466,11225
9.8156911,11150
9.82655754,10998
9.83742398,11285
9.84829042,11379
9.85915686,11162
9.8700233,11170
9.88088974,11365
9.89175618,11201
9.90262262,11033
9.91348906,10766
9.9243555,10973
9.93522194,11025
9.94608838,10577
9.95695482,10728
9.96782126,10663
9.9786877,10498
9.98955414,10322
10.00042058,10516
10.01128702,10268
10.02215346,10376
10.0330199,9985
10.04388634,10129
10.05475278,10009
10.06561922,9852
10.07648566,9833
10.0873521,9820
10.09821854,9701
10.10908498,9607
10.11995142,9641
10.13081786,9689
10.1416843,9467
10.15255074,9483
10.16341718,9421
10.17428362,9497
10.18515006,9340
10.1960165,9332
10.20688294,9355
10.21774938,9378
10.22861582,9034
10.23948226,9184
10.2503487,9061
10.26121514,9000
10.27208158,9085
10.28294802,9088
10.29381446,8990
10.3046809,9067
10.31554734,9081
10.32641378,8935
10.33728022,8803
10.34814666,8748
10.3590131,8963
10.36987954,8803
10.38074598,8745
10.39161242,8878
10.40247886,8735
10.4133453,8832
10.42421174,8749
10.43507818,8686
10.44594462,8737
10.45681106,8675
10.4676775,8570
10.47854394,8626
10.48941038,8687
10.50027682,8676
10.51114326,8691
10.5220097,8686
10.53287614,8760
10.54374258,8471
10.55460902,8626
10.56547546,8536
10.5763419,8571
10.58720834,8571
10.59807478,8667
10.60894122,8609
10.61980766,8702
10.6306741,8452
10.64154054,8591
10.65240698,8425
10.66327342,8350
10.67413986,8346
10.6850063,8315
10.69587274,8203
10.70673918,8237
10.71760562,8229
10.72847206,8275
10.7393385,8171
10.75020494,8164
10.76107138,8238
10.77193782,8088
10.78280426,8159
10.7936707,8128
10.80453714,7970
10.81540358,8249
10.82627002,8162
10.83713646,8221
10.8480029,8056
10.85886934,8065
10.86973578,8074
10.88060222,8040
10.89146866,7961
10.9023351,8142
10.91320154,7969
10.92406798,7979
10.93493442,7915
10.94580086,8046
10.9566673,8019
10.96753374,8000
10.97840018,7918
10.98926662,7980
11.00013306,7861
11.0109995,8067
11.02186594,7830
11.03273238,8056
11.04359882,7817
11.05446526,7880
11.0653317,7888
11.07619814,7932
11.08706458,7938
11.09793102,7862
11.10879746,7936
11.1196639,7846
11.13053034,7761
11.14139678,7860
11.15226322,7682
11.16312966,7635
11.1739961,7693
11.18486254,7860
11.19572898,7957
11.20659542,7848
11.21746186,7812
11.2283283,7868
11.23919474,7731
11.25006118,7840
11.26092762,7777
11.27179406,7760
11.2826605,7885
11.29352694,7838
11.30439338,7746
11.31525982,7751
11.32612626,7707
11.3369927,7621
11.34785914,7597
11.35872558,7749
11.36959202,7685
11.38045846,7729
11.3913249,7799
11.40219134,7764
11.41305778,7743
11.42392422,7627
11.43479066,7878
11.4456571,7626
11.45652354,7764
11.46738998,7683
11.47825642,7806
11.48912286,7762
11.4999893,7691
11.51085574,7730
11.52172218,7673
11.53258862,7631
11.54345506,7650
11.5543215,7709
11.56518794,7766
11.57605438,7631
11.58692082,7576
11.59778726,7733
11.6086537,7735
11.61952014,7656
11.63038658,7657
11.64125302,7796
11.65211946,7740
11.6629859,7658
11.67385234,7714
11.68471878,7705
11.69558522,7691
11.70645166,7549
11.7173181,7678
11.72818454,7655
11.73905098,7636
11.74991742,7542
11.76078386,7830
11.7716503,7705
11.78251674,7575
11.79338318,7873
11.80424962,7613
11.81511606,7763
11.8259825,7914
11.83684894,7825
11.84771538,7949
11.85858182,7694
11.86944826,7754
11.8803147,7859
11.89118114,7598
11.90204758,7914
11.91291402,7830
11.92378046,7819
11.9346469,7799
11.94551334,7924
11.95637978,7715
11.96724622,7915
11.97811266,7873
11.9889791,7936
11.99984554,7819
12.01071198,7715
12.02157842,7812
12.03244486,7864
12.0433113,7946
12.05417774,7831
12.06504418,7954
12.07591062,7892
12.08677706,8054
12.0976435,7889
12.10850994,7755
12.11937638,7908
12.13024282,7818
12.14110926,7946
12.1519757,7961
12.16284214,7966
12.17370858,8006
12.18457502,7955
12.19544146,7984
12.2063079,7930
12.21717434,7978
12.22804078,7986
12.23890722,8007
12.24977366,8038
12.2606401,8024
12.27150654,8106
12.28237298,8232
12.29323942,8035
12.30410586,8131
12.3149723,8134
12.32583874,8209
12.33670518,8250
12.34757162,8025
12.35843806,8166
12.3693045,8230
12.38017094,8321
12.39103738,8233
12.40190382,8237
12.41277026,8515
12.4236367,8288
12.43450314,8342
12.44536958,8447
12.45623602,8238
12.46710246,8471
12.4779689,8329
12.48883534,8429
12.49970178,8377
12.51056822,8454
12.52143466,8493
12.5323011,8828
12.54316754,8528
12.55403398,8673
12.56490042,8655
12.57576686,8664
12.5866333,8821
12.59749974,8508
12.60836618,8699
12.61923262,8665
12.63009906,8834
12.6409655,8889
12.65183194,8809
12.66269838,8913
12.67356482,8890
12.68443126,8848
12.6952977,8927
12.70616414,9005
12.71703058,9282
12.72789702,9135
12.73876346,9086
12.7496299,9111
12.76049634,9335
12.77136278,9116
12.78222922,9280
12.79309566,9306
12.8039621,9172
12.81482854,9354
12.82569498,9349
12.83656142,9480
12.84742786,9394
12.8582943,9481
12.86916074,9390
12.88002718,9423
12.89089362,9624
12.90176006,9496
12.9126265,9599
12.92349294,9584
12.93435938,9670
12.94522582,9970
12.95609226,9991
12.9669587,10020
12.97782514,10063
12.98869158,10242
12.99955802,10265
13.01042446,10256
13.0212909,10137
13.03215734,10334
13.04302378,10314
13.05389022,10451
13.06475666,10551
13.0756231,10567
13.08648954,10720
13.09735598,10977
13.10822242,10948
13.11908886,10950
13.1299553,10970
13.14082174,11149
13.15168818,11453
13.16255462,11244
13.17342106,11469
13.1842875,11545
13.19515394,11765
13.20602038,11752
13.21688682,11859
13.22775326,11964
13.2386197,12346
13.24948614,12388
13.26035258,12476
13.27121902,12737
13.28208546,12754
13.2929519,12929
13.30381834,13258
13.31468478,13168
13.32555122,13436
13.33641766,13496
13.3472841,13889
13.35815054,14052
13.36901698,14338
13.37988342,14568
13.39074986,14738
13.4016163,15016
13.41248274,15201
13.42334918,15426
13.43421562,15795
13.44508206,16101
13.4559485,16202
13.46681494,16437
13.47768138,16671
13.48854782,17137
13.49941426,17557
13.5102807,18012
13.52114714,18456
13.53201358,18560
13.54288002,19079
13.55374646,19521
13.5646129,20021
13.57547934,20521
13.58634578,20950
13.59721222,21516
13.60807866,21883
13.6189451,22652
13.62981154,23139
13.64067798,23862
13.65154442,24378
13.66241086,24952
13.6732773,25854
13.68414374,26550
13.69501018,27405
13.70587662,28162
13.71674306,29006
13.7276095,29830
13.73847594,30959
13.74934238,31667
13.76020882,32669
13.77107526,33640
13.7819417,34725
13.79280814,35541
13.80367458,36647
13.81454102,37424
13.82540746,38708
13.8362739,40192
13.84714034,40772
13.85800678,41497
13.86887322,42945
13.87973966,43538
13.8906061,44359
13.90147254,45305
13.91233898,46015
13.92320542,46121
13.93407186,46548
13.9449383,47335
13.95580474,47520
13.96667118,47144
13.97753762,46986
13.98840406,46184
13.9992705,45568
14.01013694,44537
14.02100338,43085
14.03186982,41461
14.04273626,39825
14.0536027,37975
14.06446914,36285
14.07533558,34388
14.08620202,32397
14.09706846,30530
14.1079349,29054
14.11880134,27055
14.12966778,25440
14.14053422,23952
14.15140066,22591
14.1622671,21478
14.17313354,20327
14.18399998,19520
14.19486642,18451
14.20573286,17499
14.2165993,16870
14.22746574,16504
14.23833218,15681
14.24919862,15055
14.26006506,14375
14.2709315,13845
14.28179794,13430
14.29266438,13105
14.30353082,12794
14.31439726,12041
14.3252637,11887
14.33613014,11377
14.34699658,11297
14.35786302,10870
14.36872946,10592
14.3795959,10336
14.39046234,10186
14.40132878,9758
14.41219522,9636
14.42306166,9379
14.4339281,9113
14.44479454,9026
14.45566098,8991
14.46652742,8658
14.47739386,8553
14.4882603,8419
14.49912674,8218
14.50999318,8135
14.52085962,7897
14.53172606,7657
14.5425925,7741
14.55345894,7641
14.56432538,7547
14.57519182,7290
14.58605826,7405
14.5969247,7243
14.60779114,7056
14.61865758,7145
14.62952402,6806
14.64039046,6785
14.6512569,6607
14.66212334,6584
14.67298978,6634
14.68385622,6457
14.69472266,6424
14.7055891,6266
14.71645554,6339
14.72732198,6023
14.73818842,6114
14.74905486,6084
14.7599213,6031
14.77078774,5705
14.78165418,5984
14.79252062,5848
14.80338706,5740
14.8142535,5724
14.82511994,5581
14.83598638,5602
14.84685282,5695
14.85771926,5577
14.8685857,5535
14.87945214,5420
14.89031858,5238
14.90118502,5299
14.91205146,5280
14.9229179,5261
14.93378434,5231
14.94465078,5137
14.95551722,5121
14.96638366,5132
14.9772501,5148
14.98811654,4981
14.99898298,4935
15.00984942,5109
15.02071586,4871
15.0315823,4856
15.04244874,4981
15.05331518,4756
15.06418162,4848
15.07504806,4689
15.0859145,4709
15.09678094,4594
15.10764738,4768
15.11851382,4694
15.12938026,4830
15.1402467,4628
15.15111314,4534
15.16197958,4527
15.17284602,4601
15.18371246,4486
15.1945789,4471
15.20544534,4524
15.21631178,4574
15.22717822,4568
15.23804466,4472
15.2489111,4352
15.25977754,4593
15.27064398,4330
15.28151042,4384
15.29237686,4377
15.3032433,4426
15.31410974,4309
15.32497618,4423
15.33584262,4223
15.34670906,4200
15.3575755,4178
15.36844194,4191
15.37930838,4182
15.39017482,4338
15.40104126,4088
15.4119077,4163
15.42277414,4153
15.43364058,4126
15.44450702,4111
15.45537346,4047
15.4662399,3974
15.47710634,4083
15.48797278,4056
15.49883922,4080
15.50970566,3996
15.5205721,3985
15.53143854,3987
15.54230498,4077
15.55317142,3894
15.56403786,3971
15.5749043,4008
15.58577074,3956
15.59663718,3940
15.60750362,3976
15.61837006,3967
15.6292365,3833
15.64010294,3910
15.65096938,3873
15.66183582,3729
15.67270226,3878
15.6835687,3862
15.69443514,3836
15.70530158,3820
15.71616802,3645
15.72703446,3901
15.7379009,3771
15.74876734,3777
15.75963378,3844
15.77050022,3744
15.78136666,3927
15.7922331,3770
15.80309954,3742
15.81396598,3716
15.82483242,3799
15.83569886,3801
15.8465653,3633
15.85743174,3854
15.86829818,3752
15.87916462,3872
15.89003106,3755
15.9008975,3801
15.91176394,3686
15.92263038,3736
15.93349682,3785
15.94436326,3805
15.9552297,3629
15.96609614,3767
15.97696258,3639
15.98782902,3717
15.99869546,3734
16.0095619,3905
16.02042834,3703
16.03129478,3745
16.04216122,3666
16.05302766,3755
16.0638941,3793
16.07476054,3867
16.08562698,3588
16.09649342,3643
16.10735986,3611
16.1182263,3526
16.12909274,3722
16.13995918,3486
16.15082562,3601
16.16169206,3463
16.1725585,3516
16.18342494,3541
16.19429138,3534
16.20515782,3509
16.21602426,3497
16.2268907,3466
16.23775714,3535
16.24862358,3529
16.25949002,3516
16.27035646,3426
16.2812229,3420
16.29208934,3368
16.30295578,3330
16.31382222,3437
16.32468866,3429
16.3355551,3340
16.34642154,3374
16.35728798,3218
16.36815442,3398
16.37902086,3361
16.3898873,3396
16.40075374,3350
16.41162018,3373
16.42248662,3419
16.43335306,3423
16.4442195,3356
16.45508594,3238
16.46595238,3292
16.47681882,3360
16.48768526,3251
16.4985517,3241
16.50941814,3195
16.52028458,3231
16.53115102,3289
16.54201746,3152
16.5528839,3244
16.56375034,3241
16.57461678,3268
16.58548322,3211
16.59634966,3157
16.6072161,3263
16.61808254,3195
16.62894898,3132
16.63981542,3180
16.65068186,3179
16.6615483,3076
16.67241474,3261
16.68328118,3156
16.69414762,3110
16.70501406,3218
16.7158805,3065
16.72674694,3228
16.73761338,3165
16.74847982,3169
16.75934626,3096
16.7702127,3070
16.78107914,3047
16.79194558,3008
16.80281202,3077
16.81367846,3081
16.8245449,3071
16.83541134,3048
16.84627778,3042
16.85714422,3046
16.86801066,3111
16.8788771,3140
16.88974354,3109
16.90060998,3047
16.91147642,3041
16.92234286,3126
16.9332093,2907
16.94407574,3000
16.95494218,3010
16.96580862,3044
16.97667506,3088
16.9875415,3077
16.99840794,3063
17.00927438,3020
17.02014082,3029
17.03100726,3038
17.0418737,3124
17.05274014,3006
17.06360658,3079
17.07447302,3056
17.08533946,3043
17.0962059,2978
17.10707234,2958
17.11793878,2899
17.12880522,3164
17.13967166,3062
17.1505381,3018
17.16140454,2903
17.17227098,2979
17.18313742,3000
17.19400386,2999
17.2048703,2993
17.21573674,2976
17.22660318,2926
17.23746962,2982
17.24833606,3011
17.2592025,2851
17.27006894,2952
17.28093538,2965
17.29180182,2908
17.30266826,2999
17.3135347,2990
17.32440114,2931
17.33526758,2923
17.34613402,2894
17.35700046,2945
17.3678669,2896
17.37873334,2947
17.38959978,3032
17.40046622,2965
17.41133266,2838
17.4221991,2986
17.43306554,2915
17.44393198,2905
17.45479842,2933
17.46566486,2964
17.4765313,2849
17.48739774,3027
17.49826418,2900
17.50913062,2974
17.51999706,2887
17.5308635,2798
17.54172994,2851
17.55259638,2909
17.56346282,2879
17.57432926,2905
17.5851957,2860
17.59606214,2885
17.60692858,2945
17.61779502,2897
17.62866146,2927
17.6395279,2862
17.65039434,2795
17.66126078,2886
17.67212722,2859
17.68299366,2934
17.6938601,2857
17.70472654,2928
17.71559298,2874
17.72645942,2878
17.73732586,2875
17.7481923,2864
17.75905874,2908
17.76992518,2921
17.78079162,2946
17.79165806,2919
17.8025245,2910
17.81339094,2971
17.82425738,2957
17.83512382,2827
17.84599026,2940
17.8568567,2798
17.86772314,2890
17.87858958,2822
17.88945602,2921
17.90032246,2813
17.9111889,2869
17.92205534,2884
17.93292178,2898
17.94378822,2857
17.95465466,2894
17.9655211,2877
17.97638754,2823
17.98725398,2861
17.99812042,2818
18.00898686,2794
18.0198533,2830
18.03071974,2825
18.04158618,2810
18.05245262,2798
18.06331906,2864
18.0741855,2915
18.08505194,2775
18.09591838,2795
18.10678482,2830
18.11765126,2811
18.1285177,2786
18.13938414,2917
18.15025058,2866
18.16111702,2739
18.17198346,2801
18.1828499,2827
18.19371634,2831
18.20458278,2804
18.21544922,2858
18.22631566,2852
18.2371821,2682
18.24804854,2842
18.25891498,2807
18.26978142,2876
18.28064786,2830
18.2915143,2800
18.30238074,2800
18.31324718,2847
18.32411362,2827
18.33498006,2840
18.3458465,2808
18.35671294,2859
18.36757938,2788
18.37844582,2844
18.38931226,2750
18.4001787,2841
18.41104514,2775
18.42191158,2730
18.43277802,2814
18.44364446,2904
18.4545109,2802
18.46537734,2793
18.47624378,2748
18.48711022,2767
18.49797666,2798
18.5088431,2795
18.51970954,2874
18.53057598,2769
18.54144242,2763
18.55230886,2863
18.5631753,2809
18.57404174,2800
18.58490818,2884
18.59577462,2903
18.60664106,2893
18.6175075,2861
18.62837394,2829
18.63924038,2780
18.65010682,2887
18.66097326,2867
18.6718397,2834
18.68270614,2726
18.69357258,2870
18.70443902,2853
18.71530546,2931
18.7261719,2818
18.73703834,2848
18.74790478,2886
18.75877122,2906
18.76963766,2825
18.7805041,2777
18.79137054,2897
18.80223698,2855
18.81310342,2805
18.82396986,2719
18.8348363,2829
18.84570274,2795
18.85656918,2817
18.86743562,2776
18.87830206,2708
18.8891685,2838
18.90003494,2810
18.91090138,2747
18.92176782,2832
18.93263426,2726
18.9435007,2753
18.95436714,2777
18.96523358,2788
18.97610002,2883
18.98696646,2718
18.9978329,2812
19.00869934,2809
19.01956578,2724
19.03043222,2746
19.04129866,2964
19.0521651,2829
19.06303154,2792
19.07389798,2769
19.08476442,2838
19.09563086,2669
19.1064973,2796
19.11736374,2788
19.12823018,2933
19.13909662,2812
19.14996306,2724
19.1608295,2837
19.17169594,2807
19.18256238,2886
19.19342882,2798
19.20429526,2797
19.2151617,2886
19.22602814,2851
19.23689458,2757
19.24776102,2826
19.25862746,2818
19.2694939,2906
19.28036034,2890
19.29122678,2826
19.30209322,2744
19.31295966,2897
19.3238261,2780
19.33469254,2853
19.34555898,2865
19.35642542,2812
19.36729186,2869
19.3781583,2841
19.38902474,2859
19.39989118,2897
19.41075762,2810
19.42162406,2723
19.4324905,2847
19.44335694,2725
19.45422338,2833
19.46508982,2852
19.47595626,2748
19.4868227,2799
19.49768914,2865
19.50855558,2874
19.51942202,2753
19.53028846,2774
19.5411549,2796
19.55202134,2998
19.56288778,2937
19.57375422,2836
19.58462066,2974
19.5954871,2880
19.60635354,2925
19.61721998,2831
19.62808642,2956
19.63895286,2726
19.6498193,2788
19.66068574,2917
19.67155218,2840
19.68241862,2910
19.69328506,2832
19.7041515,2800
19.71501794,2872
19.72588438,2817
19.73675082,2964
19.74761726,2896
19.7584837,2967
19.76935014,2903
19.78021658,2939
19.79108302,2817
19.80194946,2922
19.8128159,2999
19.82368234,2981
19.83454878,2881
19.84541522,3030
19.85628166,2922
19.8671481,3013
19.87801454,3096
19.88888098,3018
19.89974742,3032
19.91061386,2961
19.9214803,3052
19.93234674,2954
19.94321318,2960
19.95407962,2996
19.96494606,3052
19.9758125,3036
19.98667894,2965
19.99754538,2979
20.00841182,3086
20.01927826,3047
20.0301447,3139
20.04101114,3184
20.05187758,3112
20.06274402,3030
20.07361046,3094
20.0844769,3228
20.09534334,3162
20.10620978,3255
20.11707622,3129
20.12794266,3232
20.1388091,3353
20.14967554,3248
20.16054198,3291
20.17140842,3340
20.18227486,3305
20.1931413,3389
20.20400774,3383
20.21487418,3419
20.22574062,3469
20.23660706,3397
20.2474735,3442
20.25833994,3470
20.26920638,3469
20.28007282,3427
20.29093926,3458
20.3018057,3428
20.31267214,3480
20.32353858,3453
20.33440502,3210
20.34527146,3401
20.3561379,3336
20.36700434,3321
20.37787078,3232
20.38873722,3192
20.39960366,3142
20.4104701,3282
20.42133654,3126
20.43220298,3200
20.44306942,3009
20.45393586,3128
20.4648023,3101
20.47566874,3039
20.48653518,3038
20.49740162,3054
20.50826806,3021
20.5191345,2951
20.53000094,3024
20.54086738,3007
20.55173382,3075
20.56260026,2980
20.5734667,2981
20.58433314,2949
20.59519958,2987
20.60606602,2966
20.61693246,2894
20.6277989,2843
20.63866534,2878
20.64953178,2897
20.66039822,2886
20.67126466,3011
20.6821311,2941
20.69299754,3106
20.70386398,2958
20.71473042,2889
20.72559686,2914
20.7364633,2947
20.74732974,2981
20.75819618,2997
20.76906262,2883
20.77992906,3064
20.7907955,2874
20.80166194,2940
20.81252838,3003
20.82339482,2984
20.83426126,2875
20.8451277,2875
20.85599414,2842
20.86686058,3040
20.87772702,2879
20.88859346,3015
20.8994599,2976
20.91032634,2966
20.92119278,2908
20.93205922,2943
20.94292566,2926
20.9537921,3013
20.96465854,2924
20.97552498,2973
20.98639142,2889
20.99725786,2786
21.0081243,2900
21.01899074,2827
21.02985718,2887
21.04072362,2883
21.05159006,2780
21.0624565,2742
21.07332294,2677
21.08418938,2736
21.09505582,2693
21.10592226,2744
21.1167887,2784
21.12765514,2695
21.13852158,2749
21.14938802,2730
21.16025446,2692
21.1711209,2749
21.18198734,2775
21.19285378,2730
21.20372022,2684
21.21458666,2726
21.2254531,2692
21.23631954,2685
21.24718598,2705
21.25805242,2748
21.26891886,2599
21.2797853,2801
21.29065174,2690
21.30151818,2534
21.31238462,2737
21.32325106,2728
21.3341175,2686
21.34498394,2628
21.35585038,2589
21.36671682,2701
21.37758326,2682
21.3884497,2744
21.39931614,2729
21.41018258,2659
21.42104902,2587
21.43191546,2612
21.4427819,2720
21.45364834,2667
21.46451478,2673
21.47538122,2631
21.48624766,2652
21.4971141,2699
21.50798054,2645
21.51884698,2638
21.52971342,2623
21.54057986,2615
21.5514463,2621
21.56231274,2674
21.57317918,2548
21.58404562,2558
21.59491206,2731
21.6057785,2686
21.61664494,2667
21.62751138,2589
21.63837782,2586
21.64924426,2541
21.6601107,2546
21.67097714,2547
21.68184358,2545
21.69271002,2571
21.70357646,2616
21.7144429,2621
21.72530934,2600
21.73617578,2573
21.74704222,2618
21.75790866,2611
21.7687751,2626
21.77964154,2626
21.79050798,2516
21.80137442,2526
21.81224086,2496
21.8231073,2529
21.83397374,2569
21.84484018,2521
21.85570662,2539
21.86657306,2525
21.8774395,2618
21.88830594,2553
21.89917238,2570
21.91003882,2516
21.92090526,2544
21.9317717,2471
21.94263814,2626
21.95350458,2604
21.96437102,2519
21.97523746,2536
21.9861039,2569
21.99697034,2535
22.00783678,2480
22.01870322,2460
22.02956966,2576
22.0404361,2478
22.05130254,2649
22.06216898,2537
22.07303542,2613
22.08390186,2523
22.0947683,2631
22.10563474,2556
22.11650118,2640
22.12736762,2644
22.13823406,2539
22.1491005,2678
22.15996694,2597
22.17083338,2456
22.18169982,2568
22.19256626,2661
22.2034327,2529
22.21429914,2713
22.22516558,2542
22.23603202,2613
22.24689846,2551
22.2577649,2607
22.26863134,2606
22.27949778,2616
22.29036422,2577
22.30123066,2675
22.3120971,2707
22.32296354,2686
22.33382998,2685
22.34469642,2756
22.35556286,2659
22.3664293,2673
22.37729574,2737
22.38816218,2718
22.39902862,2750
22.40989506,2746
22.4207615,2663
22.43162794,2802
22.44249438,2750
22.45336082,2792
22.46422726,2758
22.4750937,2911
22.48596014,2796
22.49682658,2829
22.50769302,2854
22.51855946,2844
22.5294259,2829
22.54029234,2851
22.55115878,2793
22.56202522,2908
22.57289166,2957
22.5837581,2897
22.59462454,2871
22.60549098,2911
22.61635742,2947
22.62722386,2940
22.6380903,2946
22.64895674,3084
22.65982318,2998
22.67068962,3050
22.68155606,3127
22.6924225,3006
22.70328894,3048
22.71415538,3020
22.72502182,3167
22.73588826,3119
22.7467547,3046
22.75762114,2955
22.76848758,3059
22.77935402,2937
22.79022046,3042
22.8010869,3074
22.81195334,3085
22.82281978,3045
22.83368622,3018
22.84455266,3064
22.8554191,3090
22.86628554,3031
22.87715198,3061
22.88801842,3007
22.89888486,2915
22.9097513,3090
22.92061774,2935
22.93148418,2901
22.94235062,2949
22.95321706,2925
22.9640835,3031
22.97494994,2858
22.98581638,2990
22.99668282,3000
23.00754926,2967
23.0184157,2926
23.02928214,2938
23.04014858,2967
23.05101502,2846
23.06188146,2870
23.0727479,2935
23.08361434,2881
23.09448078,2967
23.10534722,2862
23.11621366,2935
23.1270801,2850
23.13794654,2842
23.14881298,2815
23.15967942,2759
23.17054586,2831
23.1814123,2872
23.19227874,2883
23.20314518,2908
23.21401162,2832
23.22487806,2994
23.2357445,3030
23.24661094,2987
23.25747738,2792
23.26834382,2781
23.27921026,2858
23.2900767,2757
23.30094314,2844
23.31180958,2836
23.32267602,2775
23.33354246,2812
23.3444089,2839
23.35527534,2897
23.36614178,2828
23.37700822,2945
23.38787466,2836
23.3987411,2922
23.40960754,2763
23.42047398,2710
23.43134042,2826
23.44220686,2911
23.4530733,2797
23.46393974,2840
23.47480618,2903
23.48567262,2745
23.49653906,2855
23.5074055,2838
23.51827194,2868
23.52913838,2754
23.54000482,2878
23.55087126,2816
23.5617377,2721
23.57260414,2916
23.58347058,2872
23.59433702,2829
23.60520346,2778
23.6160699,2865
23.62693634,2850
23.63780278,2971
23.64866922,2880
23.65953566,2860
23.6704021,2875
23.68126854,2862
23.69213498,2871
23.70300142,2904
23.71386786,3021
23.7247343,3022
23.73560074,2933
23.74646718,2969
23.75733362,3022
23.76820006,2964
23.7790665,2995
23.78993294,3121
23.80079938,3066
23.81166582,3135
23.82253226,3154
23.8333987,3180
23.84426514,3051
23.85513158,3101
23.86599802,3057
23.87686446,3335
23.8877309,3290
23.89859734,3150
23.90946378,3186
23.92033022,3134
23.93119666,3041
23.9420631,3054
23.95292954,3018
23.96379598,2873
23.97466242,3008
23.98552886,3001
23.9963953,2901
24.00726174,2752
24.01812818,2799
24.02899462,2765
24.03986106,2822
24.0507275,2923
24.06159394,2856
24.07246038,2905
24.08332682,2872
24.09419326,2867
24.1050597,2876
24.11592614,2761
24.12679258,2804
24.13765902,2737
24.14852546,2728
24.1593919,2863
24.17025834,2698
24.18112478,2805
24.19199122,2807
24.20285766,2795
24.2137241,2826
24.22459054,2882
24.23545698,2826
24.24632342,2872
24.25718986,2787
24.2680563,2772
24.27892274,2830
24.28978918,2827
24.30065562,2868
24.31152206,2750
24.3223885,2862
24.33325494,2843
24.34412138,2836
24.35498782,2916
24.36585426,2865
24.3767207,2865
24.38758714,2781
24.39845358,2842
24.40932002,2833
24.42018646,2874
24.4310529,2827
24.44191934,2931
24.45278578,2859
24.46365222,2803
24.47451866,2900
24.4853851,2806
24.49625154,2872
24.50711798,2874
24.51798442,2824
24.52885086,2828
24.5397173,2792
24.55058374,2763
24.56145018,2813
24.57231662,2722
24.58318306,2879
24.5940495,2818
24.60491594,2746
24.61578238,2727
24.62664882,2828
24.63751526,2760
24.6483817,2835
24.65924814,2739
24.67011458,2787
24.68098102,2858
24.69184746,2793
24.7027139,2814
24.71358034,2870
24.72444678,2795
24.73531322,2848
24.74617966,2677
24.7570461,2758
24.76791254,2748
24.77877898,2798
24.78964542,2790
24.80051186,2724
24.8113783,2777
24.82224474,2818
24.83311118,2738
24.84397762,2730
24.85484406,2776
24.8657105,2736
24.87657694,2812
24.88744338,2760
24.89830982,2869
24.90917626,2798
24.9200427,2841
24.93090914,2834
24.94177558,2798
24.95264202,2856
24.96350846,2891
24.9743749,2827
24.98524134,2790
24.99610778,2770
25.00697422,2826
25.01784066,2813
25.0287071,2718
25.03957354,2890
25.05043998,2731
25.06130642,2814
25.07217286,2752
25.0830393,2870
25.09390574,2918
25.10477218,2901
25.11563862,2884
25.12650506,3012
25.1373715,2913
25.14823794,2883
25.15910438,2950
25.16997082,2936
25.18083726,2843
25.1917037,2856
25.20257014,2961
25.21343658,2983
25.22430302,2889
25.23516946,2830
25.2460359,2848
25.25690234,2946
25.26776878,2951
25.27863522,2926
25.28950166,2768
25.3003681,2968
25.31123454,2822
25.32210098,2802
25.33296742,2797
25.34383386,2847
25.3547003,2816
25.36556674,2871
25.37643318,2800
25.38729962,2765
25.39816606,2871
25.4090325,2736
25.41989894,2730
25.43076538,2769
25.44163182,2783
25.45249826,2827
25.4633647,2750
25.47423114,2749
25.48509758,2776
25.49596402,2683
25.50683046,2840
25.5176969,2712
25.52856334,2742
25.53942978,2780
25.55029622,2773
25.56116266,2813
25.5720291,2864
25.58289554,2873
25.59376198,2835
25.60462842,2905
25.61549486,2882
25.6263613,2934
25.63722774,2734
25.64809418,2824
25.65896062,2945
25.66982706,2875
25.6806935,2934
25.69155994,2868
25.70242638,2940
25.71329282,2881
25.72415926,2973
25.7350257,2961
25.74589214,2878
25.75675858,2835
25.76762502,2891
25.77849146,3018
25.7893579,2896
25.80022434,2957
25.81109078,2894
25.82195722,2925
25.83282366,2961
25.8436901,2887
25.85455654,2963
25.86542298,2913
25.87628942,2884
25.88715586,2991
25.8980223,3003
25.90888874,2977
25.91975518,2941
25.93062162,2856
25.94148806,2945
25.9523545,2951
25.96322094,2964
25.97408738,2895
25.98495382,2904
25.99582026,2935
26.0066867,2836
26.01755314,2847
26.02841958,2841
26.03928602,2896
26.05015246,2884
26.0610189,2837
26.07188534,2889
26.08275178,2763
26.09361822,2732
26.10448466,2855
26.1153511,2933
26.12621754,2807
26.13708398,2866
26.14795042,2896
26.15881686,2929
26.1696833,2866
26.18054974,2944
26.19141618,2956
26.20228262,2945
26.21314906,2979
26.2240155,2892
26.23488194,2868
26.24574838,2858
26.25661482,2953
26.26748126,2844
26.2783477,2925
26.28921414,2922
26.30008058,2983
26.31094702,2823
26.32181346,2891
26.3326799,3017
26.34354634,2877
26.35441278,2958
26.36527922,3014
26.37614566,2791
26.3870121,2929
26.39787854,3023
26.40874498,2952
26.41961142,2919
26.43047786,3005
26.4413443,3019
26.45221074,3045
26.46307718,3003
26.47394362,3023
26.48481006,2993
26.4956765,2932
26.50654294,3116
26.51740938,2992
26.52827582,3093
26.53914226,3086
26.5500087,3105
26.56087514,2984
26.57174158,3002
26.58260802,3025
26.59347446,3059
26.6043409,3112
26.61520734,3050
26.62607378,3175
26.63694022,3167
26.64780666,2973
26.6586731,3151
26.66953954,3026
26.68040598,3073
26.69127242,3047
26.70213886,3095
26.7130053,3176
26.72387174,3137
26.73473818,3143
26.74560462,3093
26.75647106,3154
26.7673375,3078
26.77820394,3126
26.78907038,3119
26.79993682,3070
26.81080326,3173
26.8216697,3214
26.83253614,3116
26.84340258,3118
26.85426902,3191
26.86513546,3209
26.8760019,3220
26.88686834,3242
26.89773478,3193
26.90860122,3162
26.91946766,3260
26.9303341,3288
26.94120054,3325
26.95206698,3396
26.96293342,3379
26.97379986,3281
26.9846663,3372
26.99553274,3405
27.00639918,3312
27.01726562,3382
27.02813206,3443
27.0389985,3526
27.04986494,3479
27.06073138,3504
27.07159782,3438
27.08246426,3506
27.0933307,3523
27.10419714,3527
27.11506358,3558
27.12593002,3517
27.13679646,3416
27.1476629,3564
27.15852934,3568
27.16939578,3523
27.18026222,3619
27.19112866,3608
27.2019951,3574
27.21286154,3353
27.22372798,3490
27.23459442,3557
27.24546086,3638
27.2563273,3668
27.26719374,3654
27.27806018,3685
27.28892662,3662
27.29979306,3614
27.3106595,3677
27.32152594,3813
27.33239238,3627
27.34325882,3653
27.35412526,3601
27.3649917,3700
27.37585814,3887
27.38672458,3916
27.39759102,3917
27.40845746,3845
27.4193239,3883
27.43019034,3885
27.44105678,4022
27.45192322,4052
27.46278966,4032
27.4736561,4136
27.48452254,4172
27.49538898,4052
27.50625542,4080
27.51712186,4054
27.5279883,4194
27.53885474,4238
27.54972118,4201
27.56058762,4460
27.57145406,4276
27.5823205,4288
27.59318694,4305
27.60405338,4343
27.61491982,4334
27.62578626,4571
27.6366527,4551
27.64751914,4410
27.65838558,4541
27.66925202,4680
27.68011846,4487
27.6909849,4671
27.70185134,4649
27.71271778,4738
27.72358422,4774
27.73445066,4900
27.7453171,4837
27.75618354,4904
27.76704998,4972
27.77791642,5020
27.78878286,4925
27.7996493,5106
27.81051574,5204
27.82138218,5292
27.83224862,5461
27.84311506,5385
27.8539815,5393
27.86484794,5584
27.87571438,5564
27.88658082,5654
27.89744726,5739
27.9083137,5706
27.91918014,5916
27.93004658,5875
27.94091302,6050
27.95177946,6156
27.9626459,6313
27.97351234,6224
27.98437878,6410
27.99524522,6443
28.00611166,6675
28.0169781,6812
28.02784454,6661
28.03871098,6848
28.04957742,6954
28.06044386,7208
28.0713103,7200
28.08217674,7247
28.09304318,7663
28.10390962,7784
28.11477606,7743
28.1256425,7941
28.13650894,8236
28.14737538,8271
28.15824182,8617
28.16910826,8757
28.1799747,8956
28.19084114,9067
28.20170758,9435
28.21257402,9469
28.22344046,9746
28.2343069,10170
28.24517334,10136
28.25603978,10558
28.26690622,10645
28.27777266,11071
28.2886391,11448
28.29950554,11802
28.31037198,12109
28.32123842,12855
28.33210486,12876
28.3429713,13335
28.35383774,13998
28.36470418,14573
28.37557062,14757
28.38643706,15652
28.3973035,16305
28.40816994,17096
28.41903638,17606
28.42990282,18534
28.44076926,19526
28.4516357,20122
28.46250214,20884
28.47336858,21841
28.48423502,22819
28.49510146,23680
28.5059679,24672
28.51683434,25711
28.52770078,26942
28.53856722,27841
28.54943366,28521
28.5603001,29320
28.57116654,30310
28.58203298,30756
28.59289942,31669
28.60376586,31821
28.6146323,31908
28.62549874,31547
28.63636518,31631
28.64723162,30871
28.65809806,30477
28.6689645,29493
28.67983094,28741
28.69069738,27694
28.70156382,26735
28.71243026,25456
28.7232967,24608
28.73416314,23542
28.74502958,22839
28.75589602,21732
28.76676246,20629
28.7776289,19842
28.78849534,19356
28.79936178,18216
28.81022822,17576
28.82109466,17005
28.8319611,16249
28.84282754,16016
28.85369398,15231
28.86456042,14864
28.87542686,14367
28.8862933,14237
28.89715974,13678
28.90802618,13329
28.91889262,13191
28.92975906,12701
28.9406255,12581
28.95149194,12270
28.96235838,11895
28.97322482,11536
28.98409126,11469
28.9949577,11349
29.00582414,11165
29.01669058,10846
29.02755702,10736
29.03842346,10685
29.0492899,10222
29.06015634,10291
29.07102278,10004
29.08188922,9914
29.09275566,9579
29.1036221,9381
29.11448854,9353
29.12535498,9181
29.13622142,9239
29.14708786,9173
29.1579543,9084
29.16882074,8890
29.17968718,8822
29.19055362,8712
29.20142006,8623
29.2122865,8421
29.22315294,8229
29.23401938,8145
29.24488582,8212
29.25575226,8101
29.2666187,7807
29.27748514,7957
29.28835158,7843
29.29921802,7679
29.31008446,7631
29.3209509,7570
29.33181734,7544
29.34268378,7564
29.35355022,7474
29.36441666,7513
29.3752831,7243
29.38614954,7023
29.39701598,7131
29.40788242,7130
29.41874886,7055
29.4296153,7177
29.44048174,7003
29.45134818,6967
29.46221462,6870
29.47308106,6733
29.4839475,6744
29.49481394,6794
29.50568038,6512
29.51654682,6712
29.52741326,6443
29.5382797,6644
29.54914614,6661
29.56001258,6476
29.57087902,6585
29.58174546,6420
29.5926119,6373
29.60347834,6428
29.61434478,6244
29.62521122,6419
29.63607766,6367
29.6469441,6173
29.65781054,6243
29.66867698,6212
29.67954342,6151
29.69040986,6250
29.7012763,6227
29.71214274,6133
29.72300918,6242
29.73387562,6120
29.74474206,5919
29.7556085,6032
29.76647494,5969
29.77734138,6057
29.78820782,6197
29.79907426,5941
29.8099407,6035
29.82080714,5962
29.83167358,5855
29.84254002,5874
29.85340646,5886
29.8642729,5897
29.87513934,6008
29.88600578,5866
29.89687222,5897
29.90773866,5859
29.9186051,5857
29.92947154,5859
29.94033798,5934
29.95120442,5801
29.96207086,5620
29.9729373,5794
29.98380374,5642
29.99467018,5629
