"Angle","Counts"
3.00243322,26794
3.01329966,26315
3.0241661,26116
3.03503254,26324
3.04589898,25767
3.05676542,25675
3.06763186,25485
3.0784983,25107
3.08936474,24787
3.10023118,24554
3.11109762,24413
3.12196406,24181
3.1328305,24206
3.14369694,23860
3.15456338,23755
3.16542982,23701
3.17629626,23441
3.1871627,23042
3.19802914,23353
3.20889558,22821
3.21976202,22919
3.23062846,22620
3.2414949,22613
3.25236134,22118
3.26322778,22072
3.27409422,21623
3.28496066,22069
3.2958271,21630
3.30669354,21561
3.31755998,21306
3.32842642,20848
3.33929286,21092
3.3501593,20994
3.36102574,20726
3.37189218,20699
3.38275862,20554
3.39362506,20279
3.4044915,20338
3.41535794,19953
3.42622438,19923
3.43709082,19743
3.44795726,19908
3.4588237,19685
3.46969014,19571
3.48055658,19562
3.49142302,19194
3.50228946,19202
3.5131559,18847
3.52402234,18800
3.53488878,18475
3.54575522,18333
3.55662166,18550
3.5674881,18604
3.57835454,18113
3.58922098,18234
3.60008742,18079
3.61095386,17958
3.6218203,17923
3.63268674,18058
3.64355318,17622
3.65441962,17716
3.66528606,17474
3.6761525,17508
3.68701894,17237
3.69788538,17319
3.70875182,17284
3.71961826,17090
3.7304847,17016
3.74135114,16924
3.75221758,16609
3.76308402,16550
3.77395046,16455
3.7848169,16410
3.79568334,16420
3.80654978,16334
3.81741622,16316
3.82828266,16131
3.8391491,16083
3.85001554,15938
3.86088198,16065
3.87174842,15663
3.88261486,15985
3.8934813,15825
3.90434774,15697
3.91521418,15844
3.92608062,15406
3.93694706,15355
3.9478135,15362
3.95867994,15334
3.96954638,15080
3.98041282,14922
3.99127926,14989
4.0021457,15014
4.01301214,15031
4.02387858,14823
4.03474502,15110
4.04561146,14829
4.0564779,14627
4.06734434,14520
4.07821078,14551
4.08907722,14218
4.09994366,14455
4.1108101,14435
4.12167654,14269
4.13254298,14188
4.14340942,14070
4.15427586,14404
4.1651423,14044
4.17600874,13979
4.18687518,13818
4.19774162,13739
4.20860806,13822
4.2194745,13819
4.23034094,13909
4.24120738,13740
4.25207382,13664
4.26294026,13600
4.2738067,13569
4.28467314,13402
4.29553958,13491
4.30640602,13506
4.31727246,13434
4.3281389,13464
4.33900534,13432
4.34987178,13332
4.36073822,13322
4.37160466,13179
4.3824711,13123
4.39333754,13281
4.40420398,13239
4.41507042,13089
4.42593686,13071
4.4368033,13181
4.44766974,13278
4.45853618,12945
4.46940262,12673
4.48026906,12801
4.4911355,12726
4.50200194,12673
4.51286838,12919
4.52373482,12826
4.53460126,12582
4.5454677,12670
4.55633414,12307
4.56720058,12542
4.57806702,12591
4.58893346,12419
4.5997999,12594
4.61066634,12403
4.62153278,12398
4.63239922,12355
4.64326566,12568
4.6541321,12345
4.66499854,12275
4.67586498,12285
4.68673142,12347
4.69759786,12209
4.7084643,12152
4.71933074,12094
4.73019718,12203
4.74106362,12213
4.75193006,11979
4.7627965,11981
4.77366294,12072
4.78452938,11968
4.79539582,12149
4.80626226,12003
4.8171287,12072
4.82799514,11757
4.83886158,11919
4.84972802,11820
4.86059446,11933
4.8714609,11786
4.88232734,11766
4.89319378,11866
4.90406022,11980
4.91492666,11737
4.9257931,11839
4.93665954,11673
4.94752598,11609
4.95839242,11534
4.96925886,11725
4.9801253,11703
4.99099174,11714
5.00185818,11663
5.01272462,11498
5.02359106,11493
5.0344575,11392
5.04532394,11639
5.05619038,11649
5.06705682,11397
5.07792326,11807
5.0887897,11479
5.09965614,11583
5.11052258,11449
5.12138902,11264
5.13225546,11298
5.1431219,11507
5.15398834,11351
5.16485478,11249
5.17572122,11402
5.18658766,11378
5.1974541,11364
5.20832054,11291
5.21918698,11352
5.23005342,11373
5.24091986,11215
5.2517863,11125
5.26265274,11397
5.27351918,11210
5.28438562,11197
5.29525206,11226
5.3061185,11242
5.31698494,11234
5.32785138,11249
5.33871782,11268
5.34958426,11238
5.3604507,11179
5.37131714,11277
5.38218358,10967
5.39305002,11138
5.40391646,11038
5.4147829,11109
5.42564934,11055
5.43651578,11061
5.44738222,10840
5.45824866,11089
5.4691151,11024
5.47998154,11018
5.49084798,11252
5.50171442,10814
5.51258086,10942
5.5234473,10825
5.53431374,10953
5.54518018,10918
5.55604662,10832
5.56691306,10771
5.5777795,10988
5.58864594,10781
5.59951238,10934
5.61037882,10832
5.62124526,10864
5.6321117,11015
5.64297814,10852
5.65384458,10896
5.66471102,10785
5.67557746,10889
5.6864439,10651
5.69731034,10861
5.70817678,10698
5.71904322,10955
5.72990966,10830
5.7407761,10821
5.75164254,10983
5.76250898,10785
5.77337542,10870
5.78424186,10775
5.7951083,10824
5.80597474,10875
5.81684118,10793
5.82770762,10628
5.83857406,10798
5.8494405,10686
5.86030694,10902
5.87117338,10587
5.88203982,10768
5.89290626,10653
5.9037727,10775
5.91463914,10624
5.92550558,10765
5.93637202,10574
5.94723846,10613
5.9581049,10786
5.96897134,10884
5.97983778,10750
5.99070422,10724
6.00157066,10591
6.0124371,10723
6.02330354,10770
6.03416998,10601
6.04503642,10644
6.05590286,10715
6.0667693,10621
6.07763574,10758
6.08850218,10857
6.09936862,10762
6.11023506,10792
6.1211015,10608
6.13196794,10747
6.14283438,10744
6.15370082,10797
6.16456726,10772
6.1754337,10695
6.18630014,10753
6.19716658,10784
6.20803302,10750
6.21889946,10746
6.2297659,10669
6.24063234,10785
6.25149878,10661
6.26236522,10760
6.27323166,10728
6.2840981,10748
6.29496454,10617
6.30583098,10538
6.31669742,10700
6.32756386,10788
6.3384303,10576
6.34929674,10965
6.36016318,10583
6.37102962,10496
6.38189606,10781
6.3927625,10608
6.40362894,10603
6.41449538,10634
6.42536182,10598
6.43622826,10547
6.4470947,10464
6.45796114,10508
6.46882758,10551
6.47969402,10564
6.49056046,10613
6.5014269,10796
6.51229334,10668
6.52315978,10733
6.53402622,10654
6.54489266,10725
6.5557591,10591
6.56662554,10460
6.57749198,10644
6.58835842,10588
6.59922486,10771
6.6100913,10873
6.62095774,10543
6.63182418,10563
6.64269062,10584
6.65355706,10469
6.6644235,10520
6.67528994,10684
6.68615638,10593
6.69702282,10655
6.70788926,10573
6.7187557,10629
6.72962214,10503
6.74048858,10631
6.75135502,10524
6.76222146,10719
6.7730879,10737
6.78395434,10595
6.79482078,10639
6.80568722,10492
6.81655366,10648
6.8274201,10631
6.83828654,10604
6.84915298,10564
6.86001942,10476
6.87088586,10499
6.8817523,10420
6.89261874,10620
6.90348518,10493
6.91435162,10709
6.92521806,10499
6.9360845,10747
6.94695094,10556
6.95781738,10556
6.96868382,10316
6.97955026,10427
6.9904167,10441
7.00128314,10716
7.01214958,10538
7.02301602,10660
7.03388246,10635
7.0447489,10555
7.05561534,10579
7.06648178,10416
7.07734822,10700
7.08821466,10540
7.0990811,10523
7.10994754,10445
7.12081398,10415
7.13168042,10638
7.14254686,10476
7.1534133,10356
7.16427974,10484
7.17514618,10513
7.18601262,10513
7.19687906,10461
7.2077455,10417
7.21861194,10457
7.22947838,10470
7.24034482,10615
7.25121126,10364
7.2620777,10496
7.27294414,10460
7.28381058,10432
7.29467702,10536
7.30554346,10393
7.3164099,10575
7.32727634,10422
7.33814278,10541
7.34900922,10629
7.35987566,10672
7.3707421,10438
7.38160854,10384
7.39247498,10242
7.40334142,10449
7.41420786,10458
7.4250743,10550
7.43594074,10431
7.44680718,10533
7.45767362,10671
7.46854006,10542
7.4794065,10428
7.49027294,10483
7.50113938,10324
7.51200582,10505
7.52287226,10436
7.5337387,10400
7.54460514,10538
7.55547158,10470
7.56633802,10597
7.57720446,10519
7.5880709,10572
7.59893734,10470
7.60980378,10471
7.62067022,10320
7.63153666,10446
7.6424031,10387
7.65326954,10539
7.66413598,10565
7.67500242,10415
7.68586886,10482
7.6967353,10419
7.70760174,10216
7.71846818,10540
7.72933462,10397
7.74020106,10349
7.7510675,10422
7.76193394,10594
7.77280038,10467
7.78366682,10062
7.79453326,10400
7.8053997,10379
7.81626614,10455
7.82713258,10408
7.83799902,10312
7.84886546,10265
7.8597319,10204
7.87059834,10672
7.88146478,10412
7.89233122,10207
7.90319766,10302
7.9140641,10353
7.92493054,10219
7.93579698,10367
7.94666342,10377
7.95752986,10267
7.9683963,10437
7.97926274,10272
7.99012918,10379
8.00099562,10353
8.01186206,10428
8.0227285,10501
8.03359494,10279
8.04446138,10155
8.05532782,10498
8.06619426,10396
8.0770607,10487
8.08792714,10309
8.09879358,10419
8.10966002,10110
8.12052646,10415
8.1313929,10399
8.14225934,10398
8.15312578,10414
8.16399222,10089
8.17485866,10448
8.1857251,10216
8.19659154,10467
8.20745798,10372
8.21832442,10210
8.22919086,10438
8.2400573,10555
8.25092374,10170
8.26179018,10309
8.27265662,10269
8.28352306,10253
8.2943895,10201
8.30525594,10392
8.31612238,10483
8.32698882,10478
8.33785526,10224
8.3487217,10362
8.35958814,10186
8.37045458,10335
8.38132102,10375
8.39218746,10244
8.4030539,10368
8.41392034,10178
8.42478678,10403
8.43565322,10271
8.44651966,10331
8.4573861,10367
8.46825254,10291
8.47911898,10455
8.48998542,10411
8.50085186,10330
8.5117183,10407
8.52258474,10462
8.53345118,10265
8.54431762,10253
8.55518406,10292
8.5660505,10374
8.57691694,10230
8.58778338,10440
8.59864982,10287
8.60951626,10341
8.6203827,10306
8.63124914,10280
8.64211558,10143
8.65298202,10437
8.66384846,10328
8.6747149,10280
8.68558134,10211
8.69644778,10476
8.70731422,10171
8.71818066,10222
8.7290471,10226
8.73991354,10452
8.75077998,10409
8.76164642,10403
8.77251286,10144
8.7833793,10508
8.79424574,10255
8.80511218,10331
8.81597862,10511
8.82684506,10378
8.8377115,10563
8.84857794,10503
8.85944438,10409
8.87031082,10318
8.88117726,10326
8.8920437,10314
8.90291014,10419
8.91377658,10413
8.92464302,10270
8.93550946,10289
8.9463759,10352
8.95724234,10153
8.96810878,10361
8.97897522,10382
8.98984166,10479
9.0007081,10412
9.01157454,10444
9.02244098,10256
9.03330742,10326
9.04417386,10140
9.0550403,10302
9.06590674,10520
9.07677318,10246
9.08763962,10421
9.09850606,10221
9.1093725,10297
9.12023894,10382
9.13110538,10298
9.14197182,10252
9.15283826,10372
9.1637047,10359
9.17457114,10367
9.18543758,10451
9.19630402,10418
9.20717046,10503
9.2180369,10554
9.22890334,10438
9.23976978,10694
9.25063622,10302
9.26150266,10509
9.2723691,10522
9.28323554,10491
9.29410198,10338
9.30496842,10265
9.31583486,10637
9.3267013,10604
9.33756774,10582
9.34843418,10527
9.35930062,10443
9.37016706,10546
9.3810335,10610
9.39189994,10671
9.40276638,10360
9.41363282,10637
9.42449926,10667
9.4353657,10605
9.44623214,10628
9.45709858,10571
9.46796502,10591
9.47883146,10553
9.4896979,10726
9.50056434,10527
9.51143078,10691
9.52229722,10560
9.53316366,10728
9.5440301,10720
9.55489654,10578
9.56576298,10580
9.57662942,10759
9.58749586,10809
9.5983623,10733
9.60922874,10790
9.62009518,10674
9.63096162,10890
9.64182806,10745
9.6526945,10737
9.66356094,10917
9.67442738,10788
9.68529382,10783
9.69616026,10986
9.7070267,11006
9.71789314,11186
9.72875958,11206
9.73962602,11234
9.75049246,11184
9.7613589,11186
9.77222534,11099
9.78309178,11031
9.79395822,11118
9.80482466,11228
9.8156911,11367
9.82655754,11469
9.83742398,11323
9.84829042,11242
9.85915686,11102
9.8700233,11217
9.88088974,11322
9.89175618,11400
9.90262262,11285
9.91348906,11320
9.9243555,11378
9.93522194,11382
9.94608838,11477
9.95695482,11256
9.96782126,11337
9.9786877,11185
9.98955414,11380
10.00042058,11388
10.01128702,11166
10.02215346,11302
10.0330199,10952
10.04388634,10832
10.05475278,11012
10.06561922,10809
10.07648566,10820
10.0873521,10759
10.09821854,10832
10.10908498,10505
10.11995142,10682
10.13081786,10664
10.1416843,10683
10.15255074,10379
10.16341718,10326
10.17428362,10435
10.18515006,10347
10.1960165,10267
10.20688294,10453
10.21774938,10263
10.22861582,10241
10.23948226,10383
10.2503487,10184
10.26121514,10261
10.27208158,10221
10.28294802,10178
10.29381446,10250
10.3046809,10079
10.31554734,10093
10.32641378,9942
10.33728022,9928
10.34814666,10116
10.3590131,9848
10.36987954,9921
10.38074598,9876
10.39161242,9931
10.40247886,9990
10.4133453,9824
10.42421174,9890
10.43507818,9719
10.44594462,9764
10.45681106,9745
10.4676775,9787
10.47854394,9547
10.48941038,9581
10.50027682,9564
10.51114326,9776
10.5220097,9779
10.53287614,9904
10.54374258,9612
10.55460902,9564
10.56547546,9545
10.5763419,9588
10.58720834,9582
10.59807478,9735
10.60894122,9436
10.61980766,9433
10.6306741,9620
10.64154054,9725
10.65240698,9542
10.66327342,9548
10.67413986,9265
10.6850063,9402
10.69587274,9548
10.70673918,9495
10.71760562,9299
10.72847206,9426
10.7393385,9482
10.75020494,9478
10.76107138,9393
10.77193782,9332
10.78280426,9180
10.7936707,9244
10.80453714,9398
10.81540358,9314
10.82627002,9080
10.83713646,9174
10.8480029,9157
10.85886934,9326
10.86973578,9116
10.88060222,9076
10.89146866,8989
10.9023351,9122
10.91320154,9217
10.92406798,9139
10.93493442,9181
10.94580086,8861
10.9566673,8997
10.96753374,8990
10.97840018,9047
10.98926662,9024
11.00013306,8955
11.0109995,9090
11.02186594,8738
11.03273238,9005
11.04359882,8777
11.05446526,8876
11.0653317,8828
11.07619814,8857
11.08706458,8713
11.09793102,8755
11.10879746,8806
11.1196639,8923
11.13053034,8747
11.14139678,8809
11.15226322,8737
11.16312966,8987
11.1739961,8627
11.18486254,8758
11.19572898,8709
11.20659542,8769
11.21746186,8876
11.2283283,8587
11.23919474,8766
11.25006118,8729
11.26092762,8638
11.27179406,8698
11.2826605,8650
11.29352694,8712
11.30439338,8538
11.31525982,8690
11.32612626,8544
11.3369927,8594
11.34785914,8585
11.35872558,8598
11.36959202,8768
11.38045846,8683
11.3913249,8519
11.40219134,8648
11.41305778,8531
11.42392422,8576
11.43479066,8658
11.4456571,8361
11.45652354,8561
11.46738998,8427
11.47825642,8397
11.48912286,8493
11.4999893,8480
11.51085574,8443
11.52172218,8388
11.53258862,8380
11.54345506,8379
11.5543215,8601
11.56518794,8379
11.57605438,8388
11.58692082,8565
11.59778726,8389
11.6086537,8294
11.61952014,8290
11.63038658,8499
11.64125302,8247
11.65211946,8434
11.6629859,8190
11.67385234,8253
11.68471878,8339
11.69558522,8333
11.70645166,8181
11.7173181,8315
11.72818454,8256
11.73905098,8224
11.74991742,8284
11.76078386,8215
11.7716503,8156
11.78251674,8403
11.79338318,8362
11.80424962,8314
11.81511606,8150
11.8259825,8191
11.83684894,8115
11.84771538,8239
11.85858182,8305
11.86944826,8342
11.8803147,8250
11.89118114,8252
11.90204758,8298
11.91291402,8254
11.92378046,7950
11.9346469,8320
11.94551334,8246
11.95637978,8160
11.96724622,8359
11.97811266,8309
11.9889791,8169
11.99984554,8237
12.01071198,8158
12.02157842,8163
12.03244486,8309
12.0433113,8205
12.05417774,8245
12.06504418,8109
12.07591062,8162
12.08677706,8319
12.0976435,8126
12.10850994,8254
12.11937638,8146
12.13024282,7955
12.14110926,8405
12.1519757,8271
12.16284214,8245
12.17370858,8149
12.18457502,8180
12.19544146,8123
12.2063079,8257
12.21717434,8196
12.22804078,8225
12.23890722,8138
12.24977366,8194
12.2606401,8247
12.27150654,8245
12.28237298,8038
12.29323942,8195
12.30410586,8079
12.3149723,8202
12.32583874,8165
12.33670518,8148
12.34757162,8113
12.35843806,8166
12.3693045,8220
12.38017094,8133
12.39103738,8075
12.40190382,8069
12.41277026,8179
12.4236367,8261
12.43450314,8285
12.44536958,8198
12.45623602,8357
12.46710246,8140
12.4779689,8305
12.48883534,8267
12.49970178,8310
12.51056822,8209
12.52143466,8154
12.5323011,8425
12.54316754,8365
12.55403398,8229
12.56490042,8502
12.57576686,8441
12.5866333,8434
12.59749974,8315
12.60836618,8286
12.61923262,8273
12.63009906,8490
12.6409655,8435
12.65183194,8408
12.66269838,8432
12.67356482,8530
12.68443126,8455
12.6952977,8649
12.70616414,8517
12.71703058,8476
12.72789702,8500
12.73876346,8433
12.7496299,8336
12.76049634,8505
12.77136278,8445
12.78222922,8642
12.79309566,8656
12.8039621,8486
12.81482854,8549
12.82569498,8617
12.83656142,8574
12.84742786,8652
12.8582943,8797
12.86916074,8731
12.88002718,8586
12.89089362,8748
12.90176006,8744
12.9126265,8950
12.92349294,8745
12.93435938,8802
12.94522582,8899
12.95609226,9062
12.9669587,8817
12.97782514,8974
12.98869158,8849
12.99955802,8973
13.01042446,9032
13.0212909,9132
13.03215734,9117
13.04302378,9138
13.05389022,9197
13.06475666,9155
13.0756231,9016
13.08648954,9269
13.09735598,9350
13.10822242,9430
13.11908886,9308
13.1299553,9318
13.14082174,9410
13.15168818,9433
13.16255462,9673
13.17342106,9422
13.1842875,9625
13.19515394,9629
13.20602038,9681
13.21688682,9818
13.22775326,9735
13.2386197,10016
13.24948614,9922
13.26035258,10180
13.27121902,10107
13.28208546,10072
13.2929519,10199
13.30381834,10079
13.31468478,10367
13.32555122,10497
13.33641766,10594
13.3472841,10706
13.35815054,10719
13.36901698,10876
13.37988342,10842
13.39074986,11242
13.4016163,11287
13.41248274,11184
13.42334918,11386
13.43421562,11717
13.44508206,11647
13.4559485,11650
13.46681494,12118
13.47768138,11903
13.48854782,12286
13.49941426,12537
13.5102807,12404
13.52114714,12839
13.53201358,12830
13.54288002,13027
13.55374646,13179
13.5646129,13701
13.57547934,13582
13.58634578,13834
13.59721222,14299
13.60807866,14565
13.6189451,14778
13.62981154,14945
13.64067798,15221
13.65154442,15743
13.66241086,15975
13.6732773,16442
13.68414374,16382
13.69501018,17025
13.70587662,17380
13.71674306,17580
13.7276095,18220
13.73847594,18394
13.74934238,18949
13.76020882,19545
13.77107526,19794
13.7819417,20560
13.79280814,20706
13.80367458,21187
13.81454102,21786
13.82540746,22369
13.8362739,23105
13.84714034,23384
13.85800678,24000
13.86887322,24543
13.87973966,25113
13.8906061,25719
13.90147254,26059
13.91233898,26831
13.92320542,27277
13.93407186,27898
13.9449383,28688
13.95580474,28327
13.96667118,29133
13.97753762,29657
13.98840406,29714
13.9992705,30139
14.01013694,30400
14.02100338,30535
14.03186982,30461
14.04273626,30906
14.0536027,29947
14.06446914,29931
14.07533558,29197
14.08620202,28319
14.09706846,28117
14.1079349,27203
14.11880134,26277
14.12966778,25231
14.14053422,24003
14.15140066,23381
14.1622671,22185
14.17313354,20779
14.18399998,19996
14.19486642,19150
14.20573286,18021
14.2165993,17067
14.22746574,16246
14.23833218,15814
14.24919862,14983
14.26006506,14510
14.2709315,13858
14.28179794,13255
14.29266438,13146
14.30353082,12645
14.31439726,11827
14.3252637,11631
14.33613014,11198
14.34699658,10905
14.35786302,10632
14.36872946,10113
14.3795959,10057
14.39046234,9422
14.40132878,9519
14.41219522,9175
14.42306166,8955
14.4339281,8713
14.44479454,8600
14.45566098,8515
14.46652742,8083
14.47739386,8391
14.4882603,7875
14.49912674,7805
14.50999318,7541
14.52085962,7487
14.53172606,7335
14.5425925,7173
14.55345894,7050
14.56432538,7184
14.57519182,6881
14.58605826,6714
14.5969247,6613
14.60779114,6622
14.61865758,6499
14.62952402,6403
14.64039046,6299
14.6512569,6268
14.66212334,6218
14.67298978,6090
14.68385622,6050
14.69472266,5926
14.7055891,5829
14.71645554,5769
14.72732198,5685
14.73818842,5745
14.74905486,5693
14.7599213,5626
14.77078774,5593
14.78165418,5465
14.79252062,5361
14.80338706,5397
14.8142535,5493
14.82511994,5162
14.83598638,5218
14.84685282,5157
14.85771926,5126
14.8685857,5077
14.87945214,5132
14.89031858,5061
14.90118502,4955
14.91205146,4846
14.9229179,4794
14.93378434,4971
14.94465078,4745
14.95551722,4842
14.96638366,4682
14.9772501,4809
14.98811654,4792
14.99898298,4622
15.00984942,4615
15.02071586,4553
15.0315823,4608
15.04244874,4573
15.05331518,4399
15.06418162,4502
15.07504806,4353
15.0859145,4443
15.09678094,4465
15.10764738,4380
15.11851382,4382
15.12938026,4318
15.1402467,4353
15.15111314,4299
15.16197958,4272
15.17284602,4337
15.18371246,4306
15.1945789,4205
15.20544534,4243
15.21631178,4241
15.22717822,4124
15.23804466,4292
15.2489111,3999
15.25977754,4119
15.27064398,4084
15.28151042,3982
15.29237686,4014
15.3032433,4022
15.31410974,4083
15.32497618,3956
15.33584262,4077
15.34670906,3965
15.3575755,3997
15.36844194,4034
15.37930838,3798
15.39017482,3992
15.40104126,3919
15.4119077,3862
15.42277414,3874
15.43364058,3797
15.44450702,3909
15.45537346,3784
15.4662399,3812
15.47710634,3802
15.48797278,3767
15.49883922,3886
15.50970566,3740
15.5205721,3632
15.53143854,3850
15.54230498,3637
15.55317142,3659
15.56403786,3691
15.5749043,3757
15.58577074,3660
15.59663718,3636
15.60750362,3680
15.61837006,3650
15.6292365,3494
15.64010294,3615
15.65096938,3567
15.66183582,3595
15.67270226,3587
15.6835687,3590
15.69443514,3581
15.70530158,3624
15.71616802,3543
15.72703446,3546
15.7379009,3459
15.74876734,3410
15.75963378,3521
15.77050022,3480
15.78136666,3485
15.7922331,3469
15.80309954,3502
15.81396598,3400
15.82483242,3438
15.83569886,3350
15.8465653,3368
15.85743174,3446
15.86829818,3349
15.87916462,3492
15.89003106,3426
15.9008975,3416
15.91176394,3373
15.92263038,3318
15.93349682,3490
15.94436326,3399
15.9552297,3430
15.96609614,3332
15.97696258,3317
15.98782902,3294
15.99869546,3384
16.0095619,3246
16.02042834,3298
16.03129478,3350
16.04216122,3367
16.05302766,3413
16.0638941,3313
16.07476054,3258
16.08562698,3261
16.09649342,3271
16.10735986,3246
16.1182263,3286
16.12909274,3265
16.13995918,3197
16.15082562,3224
16.16169206,3247
16.1725585,3254
16.18342494,3198
16.19429138,3180
16.20515782,3198
16.21602426,3322
16.2268907,3194
16.23775714,3197
16.24862358,3143
16.25949002,3189
16.27035646,3206
16.2812229,3201
16.29208934,3160
16.30295578,3173
16.31382222,3181
16.32468866,3185
16.3355551,3172
16.34642154,3189
16.35728798,3185
16.36815442,3116
16.37902086,3221
16.3898873,3086
16.40075374,3126
16.41162018,3069
16.42248662,3121
16.43335306,3080
16.4442195,3081
16.45508594,3058
16.46595238,3061
16.47681882,3101
16.48768526,3147
16.4985517,3184
16.50941814,3154
16.52028458,3196
16.53115102,3081
16.54201746,3085
16.5528839,2968
16.56375034,3062
16.57461678,3024
16.58548322,2996
16.59634966,3025
16.6072161,3051
16.61808254,2999
16.62894898,2927
16.63981542,2987
16.65068186,3016
16.6615483,3003
16.67241474,2985
16.68328118,2943
16.69414762,2997
16.70501406,3003
16.7158805,2908
16.72674694,3055
16.73761338,3001
16.74847982,2977
16.75934626,3051
16.7702127,3028
16.78107914,3040
16.79194558,2885
16.80281202,2984
16.81367846,2836
16.8245449,2977
16.83541134,2835
16.84627778,2884
16.85714422,2930
16.86801066,2826
16.8788771,2966
16.88974354,3019
16.90060998,2991
16.91147642,2864
16.92234286,2870
16.9332093,3047
16.94407574,2886
16.95494218,3020
16.96580862,2832
16.97667506,2924
16.9875415,2875
16.99840794,2923
17.00927438,2902
17.02014082,2948
17.03100726,2832
17.0418737,2800
17.05274014,2934
17.06360658,2843
17.07447302,2893
17.08533946,2901
17.0962059,2842
17.10707234,2843
17.11793878,2914
17.12880522,2823
17.13967166,2815
17.1505381,2779
17.16140454,2827
17.17227098,2783
17.18313742,2815
17.19400386,2910
17.2048703,2807
17.21573674,2803
17.22660318,2873
17.23746962,2792
17.24833606,2888
17.2592025,2807
17.27006894,2844
17.28093538,2828
17.29180182,2801
17.30266826,2801
17.3135347,2855
17.32440114,2781
17.33526758,2765
17.34613402,2836
17.35700046,2881
17.3678669,2800
17.37873334,2749
17.38959978,2724
17.40046622,2831
17.41133266,2781
17.4221991,2844
17.43306554,2738
17.44393198,2700
17.45479842,2611
17.46566486,2787
17.4765313,2749
17.48739774,2767
17.49826418,2791
17.50913062,2792
17.51999706,2716
17.5308635,2676
17.54172994,2721
17.55259638,2706
17.56346282,2693
17.57432926,2753
17.5851957,2732
17.59606214,2684
17.60692858,2763
17.61779502,2724
17.62866146,2846
17.6395279,2728
17.65039434,2712
17.66126078,2732
17.67212722,2729
17.68299366,2720
17.6938601,2667
17.70472654,2643
17.71559298,2728
17.72645942,2692
17.73732586,2814
17.7481923,2776
17.75905874,2765
17.76992518,2676
17.78079162,2705
17.79165806,2699
17.8025245,2651
17.81339094,2616
17.82425738,2761
17.83512382,2648
17.84599026,2722
17.8568567,2695
17.86772314,2639
17.87858958,2789
17.88945602,2703
17.90032246,2675
17.9111889,2722
17.92205534,2711
17.93292178,2701
17.94378822,2760
17.95465466,2629
17.9655211,2802
17.97638754,2750
17.98725398,2669
17.99812042,2668
18.00898686,2663
18.0198533,2724
18.03071974,2773
18.04158618,2727
18.05245262,2724
18.06331906,2673
18.0741855,2538
18.08505194,2590
18.09591838,2750
18.10678482,2673
18.11765126,2712
18.1285177,2667
18.13938414,2744
18.15025058,2798
18.16111702,2655
18.17198346,2747
18.1828499,2660
18.19371634,2602
18.20458278,2608
18.21544922,2541
18.22631566,2675
18.2371821,2691
18.24804854,2658
18.25891498,2622
18.26978142,2761
18.28064786,2611
18.2915143,2737
18.30238074,2535
18.31324718,2652
18.32411362,2586
18.33498006,2694
18.3458465,2672
18.35671294,2686
18.36757938,2589
18.37844582,2646
18.38931226,2626
18.4001787,2537
18.41104514,2615
18.42191158,2675
18.43277802,2672
18.44364446,2715
18.4545109,2532
18.46537734,2636
18.47624378,2566
18.48711022,2625
18.49797666,2570
18.5088431,2675
18.51970954,2687
18.53057598,2642
18.54144242,2691
18.55230886,2716
18.5631753,2622
18.57404174,2596
18.58490818,2708
18.59577462,2665
18.60664106,2675
18.6175075,2680
18.62837394,2579
18.63924038,2601
18.65010682,2540
18.66097326,2661
18.6718397,2675
18.68270614,2564
18.69357258,2588
18.70443902,2620
18.71530546,2618
18.7261719,2630
18.73703834,2644
18.74790478,2607
18.75877122,2648
18.76963766,2661
18.7805041,2583
18.79137054,2545
18.80223698,2593
18.81310342,2703
18.82396986,2642
18.8348363,2536
18.84570274,2643
18.85656918,2616
18.86743562,2537
18.87830206,2504
18.8891685,2579
18.90003494,2675
18.91090138,2530
18.92176782,2588
18.93263426,2617
18.9435007,2605
18.95436714,2545
18.96523358,2565
18.97610002,2604
18.98696646,2573
18.9978329,2656
19.00869934,2570
19.01956578,2597
19.03043222,2580
19.04129866,2584
19.0521651,2598
19.06303154,2602
19.07389798,2606
19.08476442,2601
19.09563086,2548
19.1064973,2595
19.11736374,2548
19.12823018,2620
19.13909662,2597
19.14996306,2564
19.1608295,2553
19.17169594,2601
19.18256238,2666
19.19342882,2575
19.20429526,2570
19.2151617,2610
19.22602814,2587
19.23689458,2607
19.24776102,2519
19.25862746,2519
19.2694939,2549
19.28036034,2579
19.29122678,2592
19.30209322,2537
19.31295966,2585
19.3238261,2654
19.33469254,2516
19.34555898,2532
19.35642542,2521
19.36729186,2648
19.3781583,2522
19.38902474,2602
19.39989118,2625
19.41075762,2639
19.42162406,2622
19.4324905,2602
19.44335694,2609
19.45422338,2626
19.46508982,2590
19.47595626,2562
19.4868227,2623
19.49768914,2504
19.50855558,2611
19.51942202,2585
19.53028846,2500
19.5411549,2636
19.55202134,2629
19.56288778,2641
19.57375422,2590
19.58462066,2539
19.5954871,2593
19.60635354,2633
19.61721998,2649
19.62808642,2480
19.63895286,2595
19.6498193,2651
19.66068574,2466
19.67155218,2558
19.68241862,2587
19.69328506,2552
19.7041515,2644
19.71501794,2556
19.72588438,2488
19.73675082,2537
19.74761726,2468
19.7584837,2634
19.76935014,2773
19.78021658,2609
19.79108302,2678
19.80194946,2612
19.8128159,2564
19.82368234,2543
19.83454878,2599
19.84541522,2602
19.85628166,2587
19.8671481,2576
19.87801454,2603
19.88888098,2555
19.89974742,2669
19.91061386,2609
19.9214803,2631
19.93234674,2687
19.94321318,2611
19.95407962,2594
19.96494606,2633
19.9758125,2547
19.98667894,2702
19.99754538,2573
20.00841182,2613
20.01927826,2605
20.0301447,2665
20.04101114,2678
20.05187758,2660
20.06274402,2591
20.07361046,2640
20.0844769,2765
20.09534334,2663
20.10620978,2685
20.11707622,2722
20.12794266,2811
20.1388091,2733
20.14967554,2729
20.16054198,2789
20.17140842,2728
20.18227486,2810
20.1931413,2765
20.20400774,2741
20.21487418,2777
20.22574062,2831
20.23660706,2742
20.2474735,2893
20.25833994,2918
20.26920638,2973
20.28007282,2782
20.29093926,2900
20.3018057,2854
20.31267214,2875
20.32353858,2936
20.33440502,2967
20.34527146,2942
20.3561379,2938
20.36700434,2841
20.37787078,2863
20.38873722,2909
20.39960366,2858
20.4104701,2780
20.42133654,2797
20.43220298,2871
20.44306942,2809
20.45393586,2834
20.4648023,2773
20.47566874,2755
20.48653518,2700
20.49740162,2765
20.50826806,2802
20.5191345,2757
20.53000094,2604
20.54086738,2731
20.55173382,2731
20.56260026,2714
20.5734667,2514
20.58433314,2762
20.59519958,2655
20.60606602,2541
20.61693246,2635
20.6277989,2654
20.63866534,2622
20.64953178,2690
20.66039822,2650
20.67126466,2674
20.6821311,2596
20.69299754,2577
20.70386398,2636
20.71473042,2606
20.72559686,2534
20.7364633,2612
20.74732974,2736
20.75819618,2543
20.76906262,2564
20.77992906,2635
20.7907955,2485
20.80166194,2604
20.81252838,2516
20.82339482,2538
20.83426126,2548
20.8451277,2542
20.85599414,2661
20.86686058,2588
20.87772702,2564
20.88859346,2524
20.8994599,2498
20.91032634,2554
20.92119278,2608
20.93205922,2540
20.94292566,2501
20.9537921,2490
20.96465854,2502
20.97552498,2500
20.98639142,2456
20.99725786,2581
21.0081243,2538
21.01899074,2578
21.02985718,2488
21.04072362,2534
21.05159006,2534
21.0624565,2440
21.07332294,2515
21.08418938,2513
21.09505582,2434
21.10592226,2489
21.1167887,2481
21.12765514,2498
21.13852158,2639
21.14938802,2425
21.16025446,2473
21.1711209,2525
21.18198734,2510
21.19285378,2511
21.20372022,2447
21.21458666,2421
21.2254531,2476
21.23631954,2506
21.24718598,2499
21.25805242,2551
21.26891886,2440
21.2797853,2479
21.29065174,2490
21.30151818,2503
21.31238462,2510
21.32325106,2360
21.3341175,2517
21.34498394,2527
21.35585038,2452
21.36671682,2598
21.37758326,2524
21.3884497,2434
21.39931614,2493
21.41018258,2435
21.42104902,2443
21.43191546,2468
21.4427819,2451
21.45364834,2478
21.46451478,2352
21.47538122,2439
21.48624766,2456
21.4971141,2456
21.50798054,2422
21.51884698,2377
21.52971342,2428
21.54057986,2463
21.5514463,2495
21.56231274,2439
21.57317918,2425
21.58404562,2432
21.59491206,2477
21.6057785,2400
21.61664494,2493
21.62751138,2472
21.63837782,2457
21.64924426,2492
21.6601107,2444
21.67097714,2525
21.68184358,2471
21.69271002,2442
21.70357646,2420
21.7144429,2392
21.72530934,2451
21.73617578,2443
21.74704222,2498
21.75790866,2441
21.7687751,2423
21.77964154,2393
21.79050798,2497
21.80137442,2420
21.81224086,2394
21.8231073,2399
21.83397374,2448
21.84484018,2493
21.85570662,2542
21.86657306,2447
21.8774395,2480
21.88830594,2447
21.89917238,2494
21.91003882,2392
21.92090526,2436
21.9317717,2421
21.94263814,2450
21.95350458,2502
21.96437102,2566
21.97523746,2542
21.9861039,2458
21.99697034,2456
22.00783678,2475
22.01870322,2441
22.02956966,2465
22.0404361,2418
22.05130254,2475
22.06216898,2445
22.07303542,2450
22.08390186,2513
22.0947683,2495
22.10563474,2470
22.11650118,2464
22.12736762,2424
22.13823406,2418
22.1491005,2474
22.15996694,2528
22.17083338,2497
22.18169982,2526
22.19256626,2543
22.2034327,2528
22.21429914,2475
22.22516558,2549
22.23603202,2573
22.24689846,2637
22.2577649,2576
22.26863134,2532
22.27949778,2557
22.29036422,2498
22.30123066,2527
22.3120971,2622
22.32296354,2717
22.33382998,2495
22.34469642,2670
22.35556286,2694
22.3664293,2615
22.37729574,2670
22.38816218,2643
22.39902862,2712
22.40989506,2766
22.4207615,2685
22.43162794,2741
22.44249438,2653
22.45336082,2729
22.46422726,2749
22.4750937,2743
22.48596014,2800
22.49682658,2784
22.50769302,2803
22.51855946,2838
22.5294259,2822
22.54029234,2837
22.55115878,2866
22.56202522,2851
22.57289166,2916
22.5837581,2920
22.59462454,2967
22.60549098,3088
22.61635742,3061
22.62722386,3030
22.6380903,3120
22.64895674,3165
22.65982318,3145
22.67068962,3078
22.68155606,3005
22.6924225,3098
22.70328894,3101
22.71415538,3164
22.72502182,3083
22.73588826,3302
22.7467547,3259
22.75762114,3272
22.76848758,3297
22.77935402,3251
22.79022046,3372
22.8010869,3362
22.81195334,3377
22.82281978,3256
22.83368622,3346
22.84455266,3372
22.8554191,3396
22.86628554,3349
22.87715198,3360
22.88801842,3376
22.89888486,3423
22.9097513,3325
22.92061774,3355
22.93148418,3351
22.94235062,3294
22.95321706,3372
22.9640835,3265
22.97494994,3195
22.98581638,3294
22.99668282,3249
23.00754926,3376
23.0184157,3218
23.02928214,3238
23.04014858,3138
23.05101502,3292
23.06188146,3133
23.0727479,3159
23.08361434,3099
23.09448078,3076
23.10534722,3070
23.11621366,3139
23.1270801,3202
23.13794654,3193
23.14881298,3123
23.15967942,3122
23.17054586,3189
23.1814123,3141
23.19227874,3167
23.20314518,3135
23.21401162,2983
23.22487806,3185
23.2357445,3049
23.24661094,3100
23.25747738,3224
23.26834382,3138
23.27921026,3155
23.2900767,3078
23.30094314,3119
23.31180958,3111
23.32267602,3092
23.33354246,3142
23.3444089,3158
23.35527534,3050
23.36614178,3076
23.37700822,3069
23.38787466,3088
23.3987411,3053
23.40960754,3032
23.42047398,2928
23.43134042,2992
23.44220686,3159
23.4530733,3158
23.46393974,3033
23.47480618,3195
23.48567262,3077
23.49653906,3064
23.5074055,3026
23.51827194,2956
23.52913838,3118
23.54000482,3062
23.55087126,3003
23.5617377,2927
23.57260414,3001
23.58347058,3045
23.59433702,3002
23.60520346,3051
23.6160699,3070
23.62693634,2941
23.63780278,3060
23.64866922,3053
23.65953566,3056
23.6704021,3096
23.68126854,2984
23.69213498,3081
23.70300142,3039
23.71386786,2980
23.7247343,2987
23.73560074,3107
23.74646718,3001
23.75733362,3011
23.76820006,3037
23.7790665,3001
23.78993294,2964
23.80079938,2954
23.81166582,3000
23.82253226,3021
23.8333987,3023
23.84426514,2981
23.85513158,3064
23.86599802,3104
23.87686446,3071
23.8877309,3081
23.89859734,3129
23.90946378,3135
23.92033022,3082
23.93119666,3030
23.9420631,3072
23.95292954,3194
23.96379598,3167
23.97466242,3152
23.98552886,3096
23.9963953,3152
24.00726174,3053
24.01812818,3195
24.02899462,2986
24.03986106,3056
24.0507275,2967
24.06159394,3006
24.07246038,3070
24.08332682,2985
24.09419326,2960
24.1050597,3020
24.11592614,3007
24.12679258,3029
24.13765902,2980
24.14852546,3027
24.1593919,3075
24.17025834,2935
24.18112478,3033
24.19199122,2986
24.20285766,2948
24.2137241,2968
24.22459054,3041
24.23545698,2866
24.24632342,2864
24.25718986,2991
24.2680563,3005
24.27892274,2952
24.28978918,2943
24.30065562,2924
24.31152206,2937
24.3223885,2933
24.33325494,2955
24.34412138,2967
24.35498782,2948
24.36585426,2899
24.3767207,2835
24.38758714,2918
24.39845358,2853
24.40932002,2978
24.42018646,2881
24.4310529,2825
24.44191934,2887
24.45278578,2938
24.46365222,2933
24.47451866,2924
24.4853851,2942
24.49625154,2873
24.50711798,2816
24.51798442,2964
24.52885086,2952
24.5397173,3002
24.55058374,2865
24.56145018,2983
24.57231662,2910
24.58318306,2925
24.5940495,3003
24.60491594,2909
24.61578238,2920
24.62664882,2942
24.63751526,2921
24.6483817,2852
24.65924814,2896
24.67011458,2864
24.68098102,2992
24.69184746,2920
24.7027139,2906
24.71358034,2975
24.72444678,2886
24.73531322,2971
24.74617966,2989
24.7570461,2885
24.76791254,2997
24.77877898,2878
24.78964542,2895
24.80051186,2867
24.8113783,2864
24.82224474,2906
24.83311118,2792
24.84397762,2941
24.85484406,2878
24.8657105,2863
24.87657694,2856
24.88744338,2897
24.89830982,2867
24.90917626,2811
24.9200427,2898
24.93090914,2933
24.94177558,2929
24.95264202,2795
24.96350846,2863
24.9743749,2807
24.98524134,2828
24.99610778,2891
25.00697422,2872
25.01784066,2842
25.0287071,2796
25.03957354,2817
25.05043998,2859
25.06130642,2868
25.07217286,2893
25.0830393,2925
25.09390574,2924
25.10477218,2829
25.11563862,2856
25.12650506,2910
25.1373715,2820
25.14823794,2928
25.15910438,2803
25.16997082,2930
25.18083726,2882
25.1917037,2810
25.20257014,2853
25.21343658,2818
25.22430302,2966
25.23516946,2947
25.2460359,2877
25.25690234,2788
25.26776878,2897
25.27863522,2868
25.28950166,2835
25.3003681,2892
25.31123454,2886
25.32210098,2931
25.33296742,2866
25.34383386,2950
25.3547003,2978
25.36556674,2849
25.37643318,2958
25.38729962,2855
25.39816606,2869
25.4090325,3014
25.41989894,2802
25.43076538,2850
25.44163182,2952
25.45249826,2798
25.4633647,2888
25.47423114,2899
25.48509758,2844
25.49596402,2830
25.50683046,2814
25.5176969,2814
25.52856334,2834
25.53942978,2936
25.55029622,2878
25.56116266,2907
25.5720291,2882
25.58289554,2901
25.59376198,2920
25.60462842,2910
25.61549486,2960
25.6263613,2891
25.63722774,2904
25.64809418,2912
25.65896062,2934
25.66982706,2920
25.6806935,2914
25.69155994,2880
25.70242638,3002
25.71329282,2863
25.72415926,2898
25.7350257,3081
25.74589214,2944
25.75675858,2893
25.76762502,2849
25.77849146,2806
25.7893579,2900
25.80022434,2977
25.81109078,3022
25.82195722,3026
25.83282366,2913
25.8436901,3014
25.85455654,2943
25.86542298,2898
25.87628942,3025
25.88715586,3033
25.8980223,3033
25.90888874,2913
25.91975518,2946
25.93062162,2850
25.94148806,3089
25.9523545,2984
25.96322094,2986
25.97408738,2887
25.98495382,2948
25.99582026,3017
26.0066867,3010
26.01755314,2973
26.02841958,2947
26.03928602,2904
26.05015246,3032
26.0610189,2994
26.07188534,2924
26.08275178,2983
26.09361822,2951
26.10448466,2984
26.1153511,2938
26.12621754,2986
26.13708398,2916
26.14795042,3048
26.15881686,2931
26.1696833,3069
26.18054974,2901
26.19141618,2983
26.20228262,2941
26.21314906,3004
26.2240155,2902
26.23488194,2961
26.24574838,2957
26.25661482,2922
26.26748126,2991
26.2783477,2936
26.28921414,2996
26.30008058,2872
26.31094702,2984
26.32181346,3000
26.3326799,3015
26.34354634,3040
26.35441278,3067
26.36527922,2956
26.37614566,2940
26.3870121,2949
26.39787854,2983
26.40874498,3054
26.41961142,2999
26.43047786,2893
26.4413443,3027
26.45221074,2990
26.46307718,3080
26.47394362,3061
26.48481006,3051
26.4956765,3047
26.50654294,2993
26.51740938,3069
26.52827582,3114
26.53914226,3092
26.5500087,3032
26.56087514,2996
26.57174158,3034
26.58260802,3090
26.59347446,3079
26.6043409,3036
26.61520734,3067
26.62607378,3085
26.63694022,3089
26.64780666,2960
26.6586731,3053
26.66953954,3068
26.68040598,3166
26.69127242,3087
26.70213886,3055
26.7130053,3019
26.72387174,3093
26.73473818,3155
26.74560462,3068
26.75647106,3118
26.7673375,3132
26.77820394,3224
26.78907038,3201
26.79993682,3135
26.81080326,3115
26.8216697,3186
26.83253614,3042
26.84340258,3173
26.85426902,3123
26.86513546,3210
26.8760019,3165
26.88686834,3189
26.89773478,3230
26.90860122,3179
26.91946766,3140
26.9303341,3157
26.94120054,3148
26.95206698,3192
26.96293342,3164
26.97379986,3260
26.9846663,3144
26.99553274,3227
27.00639918,3189
27.01726562,3277
27.02813206,3365
27.0389985,3316
27.04986494,3296
27.06073138,3351
27.07159782,3391
27.08246426,3235
27.0933307,3377
27.10419714,3339
27.11506358,3207
27.12593002,3303
27.13679646,3268
27.1476629,3370
27.15852934,3262
27.16939578,3292
27.18026222,3243
27.19112866,3348
27.2019951,3366
27.21286154,3469
27.22372798,3478
27.23459442,3409
27.24546086,3399
27.2563273,3460
27.26719374,3471
27.27806018,3429
27.28892662,3516
27.29979306,3506
27.3106595,3438
27.32152594,3497
27.33239238,3463
27.34325882,3565
27.35412526,3551
27.3649917,3539
27.37585814,3515
27.38672458,3456
27.39759102,3517
27.40845746,3591
27.4193239,3565
27.43019034,3542
27.44105678,3609
27.45192322,3588
27.46278966,3541
27.4736561,3683
27.48452254,3591
27.49538898,3709
27.50625542,3612
27.51712186,3623
27.5279883,3765
27.53885474,3680
27.54972118,3749
27.56058762,3615
27.57145406,3878
27.5823205,3857
27.59318694,3834
27.60405338,3842
27.61491982,3915
27.62578626,3866
27.6366527,3853
27.64751914,4008
27.65838558,3993
27.66925202,3860
27.68011846,3940
27.6909849,3995
27.70185134,4034
27.71271778,3867
27.72358422,4124
27.73445066,4041
27.7453171,4240
27.75618354,4117
27.76704998,4096
27.77791642,4309
27.78878286,4323
27.7996493,4323
27.81051574,4384
27.82138218,4392
27.83224862,4344
27.84311506,4426
27.8539815,4554
27.86484794,4421
27.87571438,4588
27.88658082,4442
27.89744726,4548
27.9083137,4645
27.91918014,4677
27.93004658,4682
27.94091302,4626
27.95177946,4819
27.9626459,4718
27.97351234,4733
27.98437878,4984
27.99524522,4880
28.00611166,5016
28.0169781,5107
28.02784454,5119
28.03871098,5257
28.04957742,5129
28.06044386,5224
28.0713103,5387
28.08217674,5539
28.09304318,5478
28.10390962,5385
28.11477606,5713
28.1256425,5821
28.13650894,5698
28.14737538,6005
28.15824182,5936
28.16910826,5892
28.1799747,6159
28.19084114,6476
28.20170758,6485
28.21257402,6463
28.22344046,6555
28.2343069,6718
28.24517334,6915
28.25603978,6912
28.26690622,7266
28.27777266,7218
28.2886391,7354
28.29950554,7622
28.31037198,7778
28.32123842,7799
28.33210486,8385
28.3429713,8365
28.35383774,8617
28.36470418,8766
28.37557062,8955
28.38643706,9230
28.3973035,9561
28.40816994,9853
28.41903638,10052
28.42990282,10331
28.44076926,10899
28.4516357,11250
28.46250214,11481
28.47336858,11931
28.48423502,12332
28.49510146,12631
28.5059679,13368
28.51683434,13699
28.52770078,14445
28.53856722,15046
28.54943366,15602
28.5603001,16306
28.57116654,16683
28.58203298,17664
28.59289942,18336
28.60376586,18884
28.6146323,19513
28.62549874,19843
28.63636518,20869
28.64723162,21289
28.65809806,21732
28.6689645,21880
28.67983094,22308
28.69069738,22204
28.70156382,22222
28.71243026,21705
28.7232967,21510
28.73416314,20771
28.74502958,20645
28.75589602,19972
28.76676246,19576
28.7776289,18923
28.78849534,18336
28.79936178,17817
28.81022822,17029
28.82109466,16729
28.8319611,16103
28.84282754,15665
28.85369398,14865
28.86456042,14483
28.87542686,14226
28.8862933,13770
28.89715974,13318
28.90802618,12965
28.91889262,12730
28.92975906,12203
28.9406255,11888
28.95149194,11853
28.96235838,11610
28.97322482,11144
28.98409126,10921
28.9949577,10773
29.00582414,10623
29.01669058,10425
29.02755702,10232
29.03842346,10182
29.0492899,9889
29.06015634,9726
29.07102278,9536
29.08188922,9349
29.09275566,9284
29.1036221,9095
29.11448854,9254
29.12535498,9095
29.13622142,8911
29.14708786,8925
29.1579543,8749
29.16882074,8737
29.17968718,8657
29.19055362,8134
29.20142006,8528
29.2122865,8052
29.22315294,8209
29.23401938,7921
29.24488582,7946
29.25575226,7923
29.2666187,7779
29.27748514,7757
29.28835158,7715
29.29921802,7539
29.31008446,7454
29.3209509,7346
29.33181734,7446
29.34268378,7243
29.35355022,7084
29.36441666,6995
29.3752831,7049
29.38614954,6841
29.39701598,6913
29.40788242,6998
29.41874886,6882
29.4296153,6830
29.44048174,6965
29.45134818,6586
29.46221462,6584
29.47308106,6703
29.4839475,6598
29.49481394,6595
29.50568038,6506
29.51654682,6495
29.52741326,6473
29.5382797,6389
29.54914614,6303
29.56001258,6303
29.57087902,6460
29.58174546,6306
29.5926119,6110
29.60347834,6145
29.61434478,6190
29.62521122,6147
29.63607766,6068
29.6469441,6073
29.65781054,6118
29.66867698,5985
29.67954342,5961
29.69040986,6059
29.7012763,6058
29.71214274,6092
29.72300918,5855
29.73387562,5775
29.74474206,5906
29.7556085,5698
29.76647494,5797
29.77734138,5866
29.78820782,5686
29.79907426,5603
29.8099407,5859
29.82080714,5866
29.83167358,5653
29.84254002,5591
29.85340646,5576
29.8642729,5588
29.87513934,5675
29.88600578,5687
29.89687222,5576
29.90773866,5747
29.9186051,5690
29.92947154,5531
29.94033798,5547
29.95120442,5417
29.96207086,5475
29.9729373,5435
29.98380374,5435
29.99467018,5491
