"Angle","Counts"
3.00243322,26249
3.01329966,25720
3.0241661,25390
3.03503254,25006
3.04589898,24832
3.05676542,24433
3.06763186,24223
3.0784983,24003
3.08936474,23515
3.10023118,23483
3.11109762,22996
3.12196406,22817
3.1328305,22933
3.14369694,22869
3.15456338,22444
3.16542982,21899
3.17629626,21993
3.1871627,21657
3.19802914,21746
3.20889558,21251
3.21976202,21129
3.23062846,20751
3.2414949,20693
3.25236134,20375
3.26322778,20219
3.27409422,20052
3.28496066,19759
3.2958271,19486
3.30669354,19556
3.31755998,19579
3.32842642,19073
3.33929286,18906
3.3501593,18933
3.36102574,18388
3.37189218,18557
3.38275862,18173
3.39362506,18319
3.4044915,17973
3.41535794,17966
3.42622438,17752
3.43709082,17395
3.44795726,17207
3.4588237,17275
3.46969014,16998
3.48055658,17151
3.49142302,16973
3.50228946,16672
3.5131559,16545
3.52402234,16430
3.53488878,16297
3.54575522,16006
3.55662166,16005
3.5674881,16001
3.57835454,15880
3.58922098,15874
3.60008742,15602
3.61095386,15436
3.6218203,15399
3.63268674,15270
3.64355318,14980
3.65441962,15218
3.66528606,14990
3.6761525,14688
3.68701894,14716
3.69788538,14447
3.70875182,14379
3.71961826,14441
3.7304847,14079
3.74135114,13845
3.75221758,13852
3.76308402,13857
3.77395046,13448
3.7848169,13460
3.79568334,13582
3.80654978,13416
3.81741622,13550
3.82828266,13185
3.8391491,13246
3.85001554,13126
3.86088198,13157
3.87174842,12981
3.88261486,12790
3.8934813,12854
3.90434774,12817
3.91521418,12453
3.92608062,12625
3.93694706,12332
3.9478135,12058
3.95867994,12277
3.96954638,12179
3.98041282,11907
3.99127926,12090
4.0021457,11953
4.01301214,11885
4.02387858,11740
4.03474502,11735
4.04561146,11559
4.0564779,11528
4.06734434,11606
4.07821078,11582
4.08907722,11439
4.09994366,11377
4.1108101,11299
4.12167654,11156
4.13254298,11130
4.14340942,10888
4.15427586,10939
4.1651423,10901
4.17600874,10778
4.18687518,10663
4.19774162,10514
4.20860806,10662
4.2194745,10594
4.23034094,10650
4.24120738,10453
4.25207382,10537
4.26294026,10305
4.2738067,10649
4.28467314,10245
4.29553958,10078
4.30640602,10190
4.31727246,10280
4.3281389,10147
4.33900534,9923
4.34987178,10232
4.36073822,10057
4.37160466,9720
4.3824711,9712
4.39333754,9797
4.40420398,9540
4.41507042,9574
4.42593686,9845
4.4368033,9591
4.44766974,9331
4.45853618,9537
4.46940262,9428
4.48026906,9471
4.4911355,9442
4.50200194,9295
4.51286838,9213
4.52373482,9297
4.53460126,9023
4.5454677,9226
4.55633414,9063
4.56720058,9027
4.57806702,9119
4.58893346,9040
4.5997999,9149
4.61066634,9049
4.62153278,9102
4.63239922,8935
4.64326566,8912
4.6541321,8923
4.66499854,8808
4.67586498,8861
4.68673142,8792
4.69759786,8795
4.7084643,8752
4.71933074,8728
4.73019718,8633
4.74106362,8688
4.75193006,8663
4.7627965,8855
4.77366294,8792
4.78452938,8576
4.79539582,8610
4.80626226,8438
4.8171287,8437
4.82799514,8627
4.83886158,8352
4.84972802,8384
4.86059446,8426
4.8714609,8427
4.88232734,8395
4.89319378,8453
4.90406022,8405
4.91492666,8515
4.9257931,8307
4.93665954,8440
4.94752598,8260
4.95839242,8258
4.96925886,8388
4.9801253,8366
4.99099174,8326
5.00185818,8297
5.01272462,8133
5.02359106,8291
5.0344575,8340
5.04532394,8335
5.05619038,8509
5.06705682,8180
5.07792326,8216
5.0887897,8151
5.09965614,8255
5.11052258,7998
5.12138902,8255
5.13225546,8189
5.1431219,8076
5.15398834,8134
5.16485478,8048
5.17572122,8151
5.18658766,8157
5.1974541,8078
5.20832054,8102
5.21918698,8060
5.23005342,8089
5.24091986,8031
5.2517863,7997
5.26265274,8002
5.27351918,7908
5.28438562,7967
5.29525206,8168
5.3061185,8128
5.31698494,8050
5.32785138,8153
5.33871782,7973
5.34958426,7932
5.3604507,8257
5.37131714,7906
5.38218358,8086
5.39305002,7921
5.40391646,7877
5.4147829,8044
5.42564934,7921
5.43651578,8030
5.44738222,7885
5.45824866,7957
5.4691151,7836
5.47998154,8144
5.49084798,7802
5.50171442,7842
5.51258086,7927
5.5234473,7828
5.53431374,8069
5.54518018,7856
5.55604662,8010
5.56691306,8001
5.5777795,7952
5.58864594,8114
5.59951238,7965
5.61037882,8105
5.62124526,8041
5.6321117,7994
5.64297814,7890
5.65384458,7977
5.66471102,7975
5.67557746,7969
5.6864439,7974
5.69731034,7885
5.70817678,7925
5.71904322,8014
5.72990966,8128
5.7407761,7967
5.75164254,7920
5.76250898,8039
5.77337542,8112
5.78424186,8016
5.7951083,8142
5.80597474,8007
5.81684118,7829
5.82770762,7909
5.83857406,7951
5.8494405,8004
5.86030694,8279
5.87117338,8036
5.88203982,8166
5.89290626,8005
5.9037727,7968
5.91463914,8050
5.92550558,8157
5.93637202,8181
5.94723846,8049
5.9581049,8143
5.96897134,8025
5.97983778,8108
5.99070422,8148
6.00157066,8016
6.0124371,7954
6.02330354,8133
6.03416998,8133
6.04503642,8044
6.05590286,8068
6.0667693,8157
6.07763574,8313
6.08850218,8099
6.09936862,8070
6.11023506,8181
6.1211015,8163
6.13196794,8183
6.14283438,8068
6.15370082,8137
6.16456726,8205
6.1754337,8284
6.18630014,8277
6.19716658,8111
6.20803302,8217
6.21889946,8285
6.2297659,8254
6.24063234,8313
6.25149878,8151
6.26236522,8394
6.27323166,8220
6.2840981,8172
6.29496454,8326
6.30583098,8261
6.31669742,8242
6.32756386,8312
6.3384303,8256
6.34929674,8226
6.36016318,8393
6.37102962,8175
6.38189606,8249
6.3927625,8043
6.40362894,8291
6.41449538,8277
6.42536182,8351
6.43622826,8451
6.4470947,8290
6.45796114,8403
6.46882758,8164
6.47969402,8114
6.49056046,8317
6.5014269,8232
6.51229334,8388
6.52315978,8270
6.53402622,8361
6.54489266,8281
6.5557591,8214
6.56662554,8339
6.57749198,8125
6.58835842,8152
6.59922486,8205
6.6100913,8304
6.62095774,8100
6.63182418,8197
6.64269062,8014
6.65355706,8216
6.6644235,8161
6.67528994,8132
6.68615638,8382
6.69702282,8323
6.70788926,8270
6.7187557,8315
6.72962214,8167
6.74048858,8205
6.75135502,8222
6.76222146,8218
6.7730879,8321
6.78395434,8170
6.79482078,8087
6.80568722,8103
6.81655366,8291
6.8274201,8144
6.83828654,8073
6.84915298,8173
6.86001942,8284
6.87088586,8108
6.8817523,8214
6.89261874,8244
6.90348518,8081
6.91435162,8032
6.92521806,8134
6.9360845,8049
6.94695094,8102
6.95781738,8290
6.96868382,8115
6.97955026,8054
6.9904167,8029
7.00128314,8023
7.01214958,8171
7.02301602,8000
7.03388246,7896
7.0447489,7980
7.05561534,7962
7.06648178,8130
7.07734822,7919
7.08821466,7735
7.0990811,7953
7.10994754,8079
7.12081398,7928
7.13168042,7711
7.14254686,7893
7.1534133,7927
7.16427974,7837
7.17514618,8124
7.18601262,7765
7.19687906,7542
7.2077455,7844
7.21861194,7663
7.22947838,7906
7.24034482,7756
7.25121126,7775
7.2620777,7717
7.27294414,7905
7.28381058,7852
7.29467702,7572
7.30554346,7781
7.3164099,7869
7.32727634,7648
7.33814278,7796
7.34900922,7671
7.35987566,7651
7.3707421,7722
7.38160854,7604
7.39247498,7565
7.40334142,7682
7.41420786,7573
7.4250743,7706
7.43594074,7543
7.44680718,7677
7.45767362,7720
7.46854006,7713
7.4794065,7476
7.49027294,7502
7.50113938,7723
7.51200582,7453
7.52287226,7250
7.5337387,7450
7.54460514,7328
7.55547158,7358
7.56633802,7488
7.57720446,7269
7.5880709,7276
7.59893734,7545
7.60980378,7308
7.62067022,7396
7.63153666,7354
7.6424031,7258
7.65326954,7459
7.66413598,7395
7.67500242,7273
7.68586886,7299
7.6967353,7264
7.70760174,7305
7.71846818,7185
7.72933462,7192
7.74020106,7133
7.7510675,7222
7.76193394,7298
7.77280038,7167
7.78366682,7119
7.79453326,7359
7.8053997,7135
7.81626614,7193
7.82713258,7120
7.83799902,6947
7.84886546,7022
7.8597319,7011
7.87059834,7054
7.88146478,7175
7.89233122,6997
7.90319766,7087
7.9140641,6997
7.92493054,7049
7.93579698,7046
7.94666342,7018
7.95752986,7032
7.9683963,7109
7.97926274,6956
7.99012918,7066
8.00099562,6940
8.01186206,7013
8.0227285,6896
8.03359494,7080
8.04446138,6924
8.05532782,6973
8.06619426,6931
8.0770607,6839
8.08792714,6786
8.09879358,6735
8.10966002,6883
8.12052646,6683
8.1313929,6713
8.14225934,6883
8.15312578,6952
8.16399222,6800
8.17485866,6725
8.1857251,6886
8.19659154,6828
8.20745798,6721
8.21832442,6769
8.22919086,6711
8.2400573,6793
8.25092374,6588
8.26179018,6677
8.27265662,6626
8.28352306,6739
8.2943895,6628
8.30525594,6653
8.31612238,6689
8.32698882,6688
8.33785526,6630
8.3487217,6664
8.35958814,6654
8.37045458,6667
8.38132102,6605
8.39218746,6440
8.4030539,6635
8.41392034,6510
8.42478678,6648
8.43565322,6495
8.44651966,6594
8.4573861,6577
8.46825254,6506
8.47911898,6414
8.48998542,6592
8.50085186,6634
8.5117183,6507
8.52258474,6611
8.53345118,6602
8.54431762,6449
8.55518406,6654
8.5660505,6491
8.57691694,6599
8.58778338,6514
8.59864982,6548
8.60951626,6571
8.6203827,6426
8.63124914,6558
8.64211558,6539
8.65298202,6546
8.66384846,6478
8.6747149,6524
8.68558134,6597
8.69644778,6554
8.70731422,6420
8.71818066,6439
8.7290471,6470
8.73991354,6420
8.75077998,6419
8.76164642,6445
8.77251286,6233
8.7833793,6420
8.79424574,6445
8.80511218,6301
8.81597862,6187
8.82684506,6304
8.8377115,6372
8.84857794,6199
8.85944438,6345
8.87031082,6424
8.88117726,6299
8.8920437,6307
8.90291014,6344
8.91377658,6344
8.92464302,6418
8.93550946,6252
8.9463759,6570
8.95724234,6296
8.96810878,6276
8.97897522,6425
8.98984166,6157
9.0007081,6184
9.01157454,6250
9.02244098,6300
9.03330742,6359
9.04417386,6401
9.0550403,6354
9.06590674,6352
9.07677318,6311
9.08763962,6370
9.09850606,6408
9.1093725,6236
9.12023894,6397
9.13110538,6382
9.14197182,6146
9.15283826,6281
9.1637047,6201
9.17457114,6236
9.18543758,6379
9.19630402,6421
9.20717046,6212
9.2180369,6415
9.22890334,6383
9.23976978,6237
9.25063622,6422
9.26150266,6282
9.2723691,6170
9.28323554,6363
9.29410198,6314
9.30496842,6443
9.31583486,6282
9.3267013,6255
9.33756774,6348
9.34843418,6369
9.35930062,6399
9.37016706,6498
9.3810335,6389
9.39189994,6382
9.40276638,6292
9.41363282,6188
9.42449926,6378
9.4353657,6433
9.44623214,6436
9.45709858,6335
9.46796502,6565
9.47883146,6494
9.4896979,6607
9.50056434,6373
9.51143078,6395
9.52229722,6493
9.53316366,6315
9.5440301,6592
9.55489654,6619
9.56576298,6500
9.57662942,6540
9.58749586,6518
9.5983623,6499
9.60922874,6680
9.62009518,6666
9.63096162,6622
9.64182806,6640
9.6526945,6767
9.66356094,6630
9.67442738,6892
9.68529382,6719
9.69616026,6836
9.7070267,6647
9.71789314,6615
9.72875958,6974
9.73962602,6875
9.75049246,6923
9.7613589,6876
9.77222534,6831
9.78309178,7049
9.79395822,7028
9.80482466,6906
9.8156911,7090
9.82655754,7194
9.83742398,7033
9.84829042,7270
9.85915686,7111
9.8700233,7060
9.88088974,6994
9.89175618,7262
9.90262262,7249
9.91348906,7059
9.9243555,7082
9.93522194,6847
9.94608838,6909
9.95695482,6979
9.96782126,6736
9.9786877,6566
9.98955414,6587
10.00042058,6633
10.01128702,6540
10.02215346,6524
10.0330199,6684
10.04388634,6517
10.05475278,6306
10.06561922,6455
10.07648566,6374
10.0873521,6046
10.09821854,6128
10.10908498,6185
10.11995142,6149
10.13081786,6186
10.1416843,6236
10.15255074,6121
10.16341718,6133
10.17428362,6149
10.18515006,6018
10.1960165,6213
10.20688294,6041
10.21774938,6110
10.22861582,6014
10.23948226,6114
10.2503487,5994
10.26121514,5947
10.27208158,5856
10.28294802,5939
10.29381446,6170
10.3046809,6089
10.31554734,5949
10.32641378,5860
10.33728022,5870
10.34814666,5845
10.3590131,5922
10.36987954,5848
10.38074598,5877
10.39161242,5880
10.40247886,5732
10.4133453,5853
10.42421174,5831
10.43507818,5982
10.44594462,5899
10.45681106,5949
10.4676775,5837
10.47854394,5862
10.48941038,5887
10.50027682,5890
10.51114326,5832
10.5220097,5948
10.53287614,5837
10.54374258,5816
10.55460902,5855
10.56547546,5820
10.5763419,5989
10.58720834,5893
10.59807478,5822
10.60894122,5858
10.61980766,5845
10.6306741,5827
10.64154054,5801
10.65240698,5947
10.66327342,5875
10.67413986,5818
10.6850063,5923
10.69587274,5664
10.70673918,5806
10.71760562,5836
10.72847206,5675
10.7393385,5825
10.75020494,5708
10.76107138,5692
10.77193782,5682
10.78280426,5768
10.7936707,5691
10.80453714,5795
10.81540358,5800
10.82627002,5678
10.83713646,5793
10.8480029,5727
10.85886934,5604
10.86973578,5578
10.88060222,5706
10.89146866,5668
10.9023351,5751
10.91320154,5648
10.92406798,5586
10.93493442,5588
10.94580086,5676
10.9566673,5642
10.96753374,5680
10.97840018,5559
10.98926662,5725
11.00013306,5746
11.0109995,5684
11.02186594,5588
11.03273238,5612
11.04359882,5612
11.05446526,5525
11.0653317,5498
11.07619814,5562
11.08706458,5662
11.09793102,5509
11.10879746,5597
11.1196639,5709
11.13053034,5613
11.14139678,5644
11.15226322,5628
11.16312966,5518
11.1739961,5598
11.18486254,5632
11.19572898,5537
11.20659542,5765
11.21746186,5550
11.2283283,5642
11.23919474,5617
11.25006118,5513
11.26092762,5624
11.27179406,5564
11.2826605,5551
11.29352694,5487
11.30439338,5660
11.31525982,5546
11.32612626,5500
11.3369927,5719
11.34785914,5643
11.35872558,5558
11.36959202,5597
11.38045846,5524
11.3913249,5592
11.40219134,5719
11.41305778,5392
11.42392422,5678
11.43479066,5599
11.4456571,5689
11.45652354,5741
11.46738998,5857
11.47825642,5421
11.48912286,5644
11.4999893,5702
11.51085574,5746
11.52172218,5524
11.53258862,5539
11.54345506,5679
11.5543215,5656
11.56518794,5610
11.57605438,5616
11.58692082,5609
11.59778726,5601
11.6086537,5492
11.61952014,5667
11.63038658,5767
11.64125302,5713
11.65211946,5680
11.6629859,5650
11.67385234,5648
11.68471878,5701
11.69558522,5546
11.70645166,5686
11.7173181,5788
11.72818454,5692
11.73905098,5705
11.74991742,5609
11.76078386,5658
11.7716503,5681
11.78251674,5565
11.79338318,5739
11.80424962,5578
11.81511606,5799
11.8259825,5681
11.83684894,5561
11.84771538,5750
11.85858182,5830
11.86944826,5736
11.8803147,5778
11.89118114,5703
11.90204758,5758
11.91291402,5915
11.92378046,5702
11.9346469,5702
11.94551334,5796
11.95637978,5743
11.96724622,5876
11.97811266,5797
11.9889791,5900
11.99984554,5814
12.01071198,5911
12.02157842,5875
12.03244486,5839
12.0433113,5681
12.05417774,5724
12.06504418,5674
12.07591062,5729
12.08677706,5844
12.0976435,5903
12.10850994,5908
12.11937638,5877
12.13024282,5854
12.14110926,5758
12.1519757,5820
12.16284214,5846
12.17370858,5874
12.18457502,5818
12.19544146,5922
12.2063079,5908
12.21717434,5889
12.22804078,5853
12.23890722,5838
12.24977366,6079
12.2606401,5931
12.27150654,5937
12.28237298,5893
12.29323942,5991
12.30410586,5982
12.3149723,5988
12.32583874,5816
12.33670518,6005
12.34757162,6017
12.35843806,5966
12.3693045,6126
12.38017094,6051
12.39103738,6011
12.40190382,6050
12.41277026,6014
12.4236367,6149
12.43450314,6077
12.44536958,6046
12.45623602,6133
12.46710246,6204
12.4779689,6109
12.48883534,6153
12.49970178,6257
12.51056822,6210
12.52143466,6231
12.5323011,6297
12.54316754,6266
12.55403398,6119
12.56490042,6268
12.57576686,6347
12.5866333,6523
12.59749974,6397
12.60836618,6435
12.61923262,6244
12.63009906,6286
12.6409655,6516
12.65183194,6285
12.66269838,6365
12.67356482,6453
12.68443126,6528
12.6952977,6501
12.70616414,6535
12.71703058,6360
12.72789702,6708
12.73876346,6568
12.7496299,6541
12.76049634,6527
12.77136278,6591
12.78222922,6626
12.79309566,6652
12.8039621,6607
12.81482854,6694
12.82569498,6708
12.83656142,6724
12.84742786,6700
12.8582943,6718
12.86916074,6697
12.88002718,6773
12.89089362,6821
12.90176006,6840
12.9126265,6962
12.92349294,6942
12.93435938,7050
12.94522582,6935
12.95609226,6930
12.9669587,7083
12.97782514,7045
12.98869158,7166
12.99955802,7269
13.01042446,7134
13.0212909,7127
13.03215734,7313
13.04302378,7367
13.05389022,7297
13.06475666,7347
13.0756231,7596
13.08648954,7437
13.09735598,7530
13.10822242,7602
13.11908886,7732
13.1299553,7646
13.14082174,7705
13.15168818,7809
13.16255462,7830
13.17342106,7852
13.1842875,8063
13.19515394,8044
13.20602038,8080
13.21688682,8160
13.22775326,8128
13.2386197,8346
13.24948614,8445
13.26035258,8520
13.27121902,8813
13.28208546,8887
13.2929519,8632
13.30381834,8789
13.31468478,8849
13.32555122,8982
13.33641766,9046
13.3472841,9165
13.35815054,9194
13.36901698,9318
13.37988342,9786
13.39074986,9669
13.4016163,9800
13.41248274,10143
13.42334918,10211
13.43421562,10318
13.44508206,10445
13.4559485,10576
13.46681494,10723
13.47768138,11118
13.48854782,11192
13.49941426,11318
13.5102807,11345
13.52114714,11717
13.53201358,12230
13.54288002,12204
13.55374646,12318
13.5646129,12654
13.57547934,13213
13.58634578,13344
13.59721222,13347
13.60807866,13938
13.6189451,14115
13.62981154,14335
13.64067798,15101
13.65154442,15140
13.66241086,15764
13.6732773,16357
13.68414374,16920
13.69501018,17119
13.70587662,17706
13.71674306,18179
13.7276095,18598
13.73847594,18830
13.74934238,19513
13.76020882,20114
13.77107526,20594
13.7819417,21424
13.79280814,21787
13.80367458,22809
13.81454102,23140
13.82540746,23804
13.8362739,24259
13.84714034,25053
13.85800678,25850
13.86887322,26381
13.87973966,27097
13.8906061,27287
13.90147254,27935
13.91233898,28898
13.92320542,29138
13.93407186,29320
13.9449383,29277
13.95580474,29768
13.96667118,29541
13.97753762,29945
13.98840406,29727
13.9992705,29283
14.01013694,28854
14.02100338,28157
14.03186982,27445
14.04273626,26083
14.0536027,25118
14.06446914,23559
14.07533558,22349
14.08620202,21213
14.09706846,19942
14.1079349,18549
14.11880134,17870
14.12966778,16852
14.14053422,15781
14.15140066,15086
14.1622671,14232
14.17313354,13638
14.18399998,12929
14.19486642,12561
14.20573286,11775
14.2165993,11280
14.22746574,10968
14.23833218,10415
14.24919862,10150
14.26006506,9852
14.2709315,9341
14.28179794,9283
14.29266438,8913
14.30353082,8638
14.31439726,8558
14.3252637,8150
14.33613014,8136
14.34699658,7758
14.35786302,7714
14.36872946,7443
14.3795959,7318
14.39046234,7131
14.40132878,7006
14.41219522,6822
14.42306166,6787
14.4339281,6615
14.44479454,6369
14.45566098,6362
14.46652742,6308
14.47739386,6122
14.4882603,6003
14.49912674,6012
14.50999318,5843
14.52085962,5771
14.53172606,5687
14.5425925,5550
14.55345894,5570
14.56432538,5636
14.57519182,5617
14.58605826,5389
14.5969247,5321
14.60779114,5234
14.61865758,5137
14.62952402,5139
14.64039046,5074
14.6512569,4945
14.66212334,4975
14.67298978,4940
14.68385622,4972
14.69472266,4797
14.7055891,4677
14.71645554,4871
14.72732198,4856
14.73818842,4693
14.74905486,4535
14.7599213,4725
14.77078774,4553
14.78165418,4627
14.79252062,4565
14.80338706,4515
14.8142535,4505
14.82511994,4323
14.83598638,4442
14.84685282,4375
14.85771926,4379
14.8685857,4436
14.87945214,4213
14.89031858,4300
14.90118502,4127
14.91205146,4253
14.9229179,4284
14.93378434,4255
14.94465078,4189
14.95551722,4260
14.96638366,4122
14.9772501,4173
14.98811654,4059
14.99898298,4063
15.00984942,4062
15.02071586,3963
15.0315823,4110
15.04244874,4012
15.05331518,3892
15.06418162,3882
15.07504806,3898
15.0859145,4085
15.09678094,3893
15.10764738,3851
15.11851382,3868
15.12938026,3885
15.1402467,3943
15.15111314,3842
15.16197958,3759
15.17284602,3730
15.18371246,3793
15.1945789,3634
15.20544534,3719
15.21631178,3817
15.22717822,3720
15.23804466,3732
15.2489111,3656
15.25977754,3725
15.27064398,3705
15.28151042,3563
15.29237686,3678
15.3032433,3615
15.31410974,3636
15.32497618,3587
15.33584262,3608
15.34670906,3450
15.3575755,3545
15.36844194,3532
15.37930838,3635
15.39017482,3584
15.40104126,3465
15.4119077,3490
15.42277414,3525
15.43364058,3440
15.44450702,3358
15.45537346,3539
15.4662399,3433
15.47710634,3485
15.48797278,3541
15.49883922,3479
15.50970566,3459
15.5205721,3395
15.53143854,3381
15.54230498,3353
15.55317142,3423
15.56403786,3366
15.5749043,3292
15.58577074,3336
15.59663718,3391
15.60750362,3287
15.61837006,3345
15.6292365,3353
15.64010294,3251
15.65096938,3397
15.66183582,3403
15.67270226,3432
15.6835687,3268
15.69443514,3338
15.70530158,3279
15.71616802,3178
15.72703446,3316
15.7379009,3275
15.74876734,3384
15.75963378,3315
15.77050022,3302
15.78136666,3251
15.7922331,3197
15.80309954,3257
15.81396598,3183
15.82483242,3196
15.83569886,3225
15.8465653,3137
15.85743174,3172
15.86829818,3244
15.87916462,3330
15.89003106,3204
15.9008975,3199
15.91176394,3210
15.92263038,3195
15.93349682,3035
15.94436326,3124
15.9552297,3204
15.96609614,3180
15.97696258,3114
15.98782902,3100
15.99869546,3142
16.0095619,3115
16.02042834,3166
16.03129478,3133
16.04216122,3163
16.05302766,3226
16.0638941,3100
16.07476054,3200
16.08562698,3086
16.09649342,3135
16.10735986,3087
16.1182263,3108
16.12909274,3127
16.13995918,2980
16.15082562,3183
16.16169206,2953
16.1725585,3040
16.18342494,2982
16.19429138,2993
16.20515782,3098
16.21602426,3082
16.2268907,3109
16.23775714,3135
16.24862358,2964
16.25949002,2972
16.27035646,3025
16.2812229,3045
16.29208934,3036
16.30295578,2915
16.31382222,2978
16.32468866,2967
16.3355551,2943
16.34642154,2987
16.35728798,3001
16.36815442,3018
16.37902086,2942
16.3898873,3033
16.40075374,2853
16.41162018,2942
16.42248662,3021
16.43335306,2944
16.4442195,2905
16.45508594,2898
16.46595238,2913
16.47681882,2968
16.48768526,2977
16.4985517,2910
16.50941814,2878
16.52028458,2895
16.53115102,2950
16.54201746,2969
16.5528839,2913
16.56375034,2829
16.57461678,2753
16.58548322,2836
16.59634966,2759
16.6072161,2929
16.61808254,2851
16.62894898,2918
16.63981542,2944
16.65068186,2923
16.6615483,2915
16.67241474,2971
16.68328118,2841
16.69414762,2879
16.70501406,2900
16.7158805,2873
16.72674694,2881
16.73761338,2832
16.74847982,2830
16.75934626,2863
16.7702127,2854
16.78107914,2786
16.79194558,2857
16.80281202,2821
16.81367846,2874
16.8245449,2856
16.83541134,2878
16.84627778,2803
16.85714422,2827
16.86801066,2683
16.8788771,2834
16.88974354,2739
16.90060998,2754
16.91147642,2798
16.92234286,2860
16.9332093,2850
16.94407574,2840
16.95494218,2858
16.96580862,2806
16.97667506,2812
16.9875415,2807
16.99840794,2791
17.00927438,2765
17.02014082,2737
17.03100726,2770
17.0418737,2792
17.05274014,2697
17.06360658,2827
17.07447302,2724
17.08533946,2852
17.0962059,2738
17.10707234,2766
17.11793878,2691
17.12880522,2828
17.13967166,2727
17.1505381,2744
17.16140454,2802
17.17227098,2728
17.18313742,2736
17.19400386,2665
17.2048703,2738
17.21573674,2652
17.22660318,2734
17.23746962,2713
17.24833606,2832
17.2592025,2805
17.27006894,2779
17.28093538,2763
17.29180182,2763
17.30266826,2782
17.3135347,2714
17.32440114,2616
17.33526758,2654
17.34613402,2662
17.35700046,2573
17.3678669,2691
17.37873334,2748
17.38959978,2712
17.40046622,2681
17.41133266,2627
17.4221991,2705
17.43306554,2698
17.44393198,2750
17.45479842,2646
17.46566486,2644
17.4765313,2778
17.48739774,2649
17.49826418,2696
17.50913062,2646
17.51999706,2699
17.5308635,2717
17.54172994,2695
17.55259638,2689
17.56346282,2670
17.57432926,2658
17.5851957,2730
17.59606214,2644
17.60692858,2672
17.61779502,2634
17.62866146,2588
17.6395279,2645
17.65039434,2579
17.66126078,2602
17.67212722,2661
17.68299366,2639
17.6938601,2622
17.70472654,2716
17.71559298,2757
17.72645942,2688
17.73732586,2656
17.7481923,2673
17.75905874,2679
17.76992518,2613
17.78079162,2624
17.79165806,2640
17.8025245,2684
17.81339094,2580
17.82425738,2643
17.83512382,2705
17.84599026,2609
17.8568567,2605
17.86772314,2711
17.87858958,2606
17.88945602,2656
17.90032246,2623
17.9111889,2725
17.92205534,2650
17.93292178,2672
17.94378822,2566
17.95465466,2604
17.9655211,2594
17.97638754,2633
17.98725398,2650
17.99812042,2637
18.00898686,2603
18.0198533,2606
18.03071974,2672
18.04158618,2639
18.05245262,2695
18.06331906,2656
18.0741855,2556
18.08505194,2654
18.09591838,2557
18.10678482,2593
18.11765126,2586
18.1285177,2544
18.13938414,2649
18.15025058,2543
18.16111702,2561
18.17198346,2626
18.1828499,2688
18.19371634,2568
18.20458278,2550
18.21544922,2562
18.22631566,2577
18.2371821,2586
18.24804854,2540
18.25891498,2540
18.26978142,2554
18.28064786,2567
18.2915143,2644
18.30238074,2539
18.31324718,2581
18.32411362,2579
18.33498006,2567
18.3458465,2630
18.35671294,2544
18.36757938,2710
18.37844582,2567
18.38931226,2601
18.4001787,2556
18.41104514,2633
18.42191158,2542
18.43277802,2487
18.44364446,2563
18.4545109,2626
18.46537734,2605
18.47624378,2658
18.48711022,2487
18.49797666,2707
18.5088431,2546
18.51970954,2586
18.53057598,2578
18.54144242,2589
18.55230886,2555
18.5631753,2514
18.57404174,2588
18.58490818,2574
18.59577462,2556
18.60664106,2704
18.6175075,2616
18.62837394,2579
18.63924038,2589
18.65010682,2634
18.66097326,2556
18.6718397,2559
18.68270614,2513
18.69357258,2618
18.70443902,2511
18.71530546,2597
18.7261719,2595
18.73703834,2552
18.74790478,2645
18.75877122,2657
18.76963766,2641
18.7805041,2602
18.79137054,2578
18.80223698,2515
18.81310342,2544
18.82396986,2498
18.8348363,2552
18.84570274,2547
18.85656918,2581
18.86743562,2654
18.87830206,2655
18.8891685,2556
18.90003494,2576
18.91090138,2528
18.92176782,2530
18.93263426,2570
18.9435007,2568
18.95436714,2638
18.96523358,2560
18.97610002,2437
18.98696646,2655
18.9978329,2528
19.00869934,2625
19.01956578,2611
19.03043222,2522
19.04129866,2539
19.0521651,2557
19.06303154,2589
19.07389798,2595
19.08476442,2488
19.09563086,2507
19.1064973,2486
19.11736374,2562
19.12823018,2555
19.13909662,2605
19.14996306,2513
19.1608295,2519
19.17169594,2579
19.18256238,2520
19.19342882,2606
19.20429526,2636
19.2151617,2604
19.22602814,2510
19.23689458,2671
19.24776102,2524
19.25862746,2494
19.2694939,2602
19.28036034,2540
19.29122678,2547
19.30209322,2504
19.31295966,2520
19.3238261,2492
19.33469254,2546
19.34555898,2600
19.35642542,2489
19.36729186,2624
19.3781583,2643
19.38902474,2518
19.39989118,2599
19.41075762,2535
19.42162406,2648
19.4324905,2436
19.44335694,2512
19.45422338,2632
19.46508982,2603
19.47595626,2604
19.4868227,2595
19.49768914,2604
19.50855558,2576
19.51942202,2581
19.53028846,2554
19.5411549,2536
19.55202134,2653
19.56288778,2475
19.57375422,2641
19.58462066,2609
19.5954871,2541
19.60635354,2553
19.61721998,2510
19.62808642,2476
19.63895286,2624
19.6498193,2608
19.66068574,2481
19.67155218,2699
19.68241862,2580
19.69328506,2633
19.7041515,2593
19.71501794,2675
19.72588438,2614
19.73675082,2689
19.74761726,2574
19.7584837,2519
19.76935014,2532
19.78021658,2549
19.79108302,2592
19.80194946,2578
19.8128159,2637
19.82368234,2587
19.83454878,2681
19.84541522,2710
19.85628166,2559
19.8671481,2645
19.87801454,2603
19.88888098,2618
19.89974742,2689
19.91061386,2682
19.9214803,2687
19.93234674,2653
19.94321318,2675
19.95407962,2785
19.96494606,2651
19.9758125,2792
19.98667894,2677
19.99754538,2660
20.00841182,2733
20.01927826,2780
20.0301447,2684
20.04101114,2705
20.05187758,2849
20.06274402,2661
20.07361046,2843
20.0844769,2847
20.09534334,2840
20.10620978,2841
20.11707622,2835
20.12794266,2870
20.1388091,2780
20.14967554,2880
20.16054198,2902
20.17140842,2842
20.18227486,2867
20.1931413,2894
20.20400774,2924
20.21487418,2926
20.22574062,3002
20.23660706,2999
20.2474735,2971
20.25833994,2999
20.26920638,3061
20.28007282,2941
20.29093926,3032
20.3018057,2967
20.31267214,3006
20.32353858,3013
20.33440502,2967
20.34527146,3003
20.3561379,2917
20.36700434,2895
20.37787078,2852
20.38873722,2888
20.39960366,2871
20.4104701,2868
20.42133654,2877
20.43220298,2942
20.44306942,2875
20.45393586,2886
20.4648023,2791
20.47566874,2802
20.48653518,2870
20.49740162,2730
20.50826806,2766
20.5191345,2715
20.53000094,2830
20.54086738,2730
20.55173382,2725
20.56260026,2724
20.5734667,2663
20.58433314,2845
20.59519958,2680
20.60606602,2808
20.61693246,2673
20.6277989,2712
20.63866534,2723
20.64953178,2805
20.66039822,2733
20.67126466,2763
20.6821311,2682
20.69299754,2736
20.70386398,2682
20.71473042,2758
20.72559686,2753
20.7364633,2795
20.74732974,2664
20.75819618,2768
20.76906262,2791
20.77992906,2759
20.7907955,2753
20.80166194,2676
20.81252838,2765
20.82339482,2748
20.83426126,2795
20.8451277,2919
20.85599414,2792
20.86686058,2978
20.87772702,2808
20.88859346,2957
20.8994599,2896
20.91032634,2948
20.92119278,2962
20.93205922,2938
20.94292566,2988
20.9537921,2943
20.96465854,2815
20.97552498,2736
20.98639142,2794
20.99725786,2777
21.0081243,2803
21.01899074,2724
21.02985718,2741
21.04072362,2695
21.05159006,2620
21.0624565,2726
21.07332294,2676
21.08418938,2597
21.09505582,2630
21.10592226,2583
21.1167887,2683
21.12765514,2666
21.13852158,2704
21.14938802,2612
21.16025446,2583
21.1711209,2638
21.18198734,2522
21.19285378,2622
21.20372022,2599
21.21458666,2599
21.2254531,2578
21.23631954,2577
21.24718598,2529
21.25805242,2535
21.26891886,2561
21.2797853,2607
21.29065174,2497
21.30151818,2576
21.31238462,2597
21.32325106,2540
21.3341175,2636
21.34498394,2554
21.35585038,2588
21.36671682,2494
21.37758326,2578
21.3884497,2611
21.39931614,2588
21.41018258,2546
21.42104902,2567
21.43191546,2587
21.4427819,2540
21.45364834,2473
21.46451478,2567
21.47538122,2584
21.48624766,2460
21.4971141,2506
21.50798054,2457
21.51884698,2642
21.52971342,2594
21.54057986,2574
21.5514463,2585
21.56231274,2573
21.57317918,2587
21.58404562,2585
21.59491206,2609
21.6057785,2522
21.61664494,2543
21.62751138,2570
21.63837782,2554
21.64924426,2603
21.6601107,2481
21.67097714,2499
21.68184358,2664
21.69271002,2459
21.70357646,2439
21.7144429,2519
21.72530934,2586
21.73617578,2419
21.74704222,2488
21.75790866,2595
21.7687751,2492
21.77964154,2529
21.79050798,2440
21.80137442,2486
21.81224086,2527
21.8231073,2494
21.83397374,2549
21.84484018,2454
21.85570662,2550
21.86657306,2496
21.8774395,2575
21.88830594,2525
21.89917238,2566
21.91003882,2575
21.92090526,2501
21.9317717,2415
21.94263814,2445
21.95350458,2564
21.96437102,2534
21.97523746,2564
21.9861039,2653
21.99697034,2556
22.00783678,2519
22.01870322,2574
22.02956966,2520
22.0404361,2553
22.05130254,2593
22.06216898,2554
22.07303542,2569
22.08390186,2587
22.0947683,2587
22.10563474,2619
22.11650118,2625
22.12736762,2600
22.13823406,2557
22.1491005,2547
22.15996694,2594
22.17083338,2624
22.18169982,2595
22.19256626,2646
22.2034327,2670
22.21429914,2632
22.22516558,2632
22.23603202,2635
22.24689846,2663
22.2577649,2651
22.26863134,2654
22.27949778,2637
22.29036422,2659
22.30123066,2726
22.3120971,2646
22.32296354,2702
22.33382998,2820
22.34469642,2797
22.35556286,2781
22.3664293,2761
22.37729574,2778
22.38816218,2814
22.39902862,2920
22.40989506,2835
22.4207615,2860
22.43162794,2896
22.44249438,2919
22.45336082,2920
22.46422726,2873
22.4750937,2851
22.48596014,3033
22.49682658,2880
22.50769302,2907
22.51855946,3016
22.5294259,3087
22.54029234,3114
22.55115878,3087
22.56202522,3075
22.57289166,3104
22.5837581,3124
22.59462454,3200
22.60549098,3214
22.61635742,3237
22.62722386,3180
22.6380903,3154
22.64895674,3392
22.65982318,3301
22.67068962,3377
22.68155606,3332
22.6924225,3323
22.70328894,3466
22.71415538,3444
22.72502182,3502
22.73588826,3523
22.7467547,3446
22.75762114,3511
22.76848758,3547
22.77935402,3567
22.79022046,3509
22.8010869,3421
22.81195334,3483
22.82281978,3399
22.83368622,3582
22.84455266,3472
22.8554191,3578
22.86628554,3509
22.87715198,3479
22.88801842,3368
22.89888486,3535
22.9097513,3451
22.92061774,3378
22.93148418,3416
22.94235062,3385
22.95321706,3349
22.9640835,3319
22.97494994,3290
22.98581638,3403
22.99668282,3437
23.00754926,3308
23.0184157,3372
23.02928214,3355
23.04014858,3374
23.05101502,3353
23.06188146,3227
23.0727479,3309
23.08361434,3314
23.09448078,3281
23.10534722,3211
23.11621366,3242
23.1270801,3276
23.13794654,3235
23.14881298,3368
23.15967942,3316
23.17054586,3265
23.1814123,3332
23.19227874,3271
23.20314518,3306
23.21401162,3374
23.22487806,3443
23.2357445,3376
23.24661094,3384
23.25747738,3375
23.26834382,3313
23.27921026,3280
23.2900767,3328
23.30094314,3291
23.31180958,3356
23.32267602,3296
23.33354246,3250
23.3444089,3181
23.35527534,3278
23.36614178,3339
23.37700822,3243
23.38787466,3237
23.3987411,3281
23.40960754,3270
23.42047398,3265
23.43134042,3270
23.44220686,3125
23.4530733,3273
23.46393974,3153
23.47480618,3107
23.48567262,3319
23.49653906,3260
23.5074055,3139
23.51827194,3220
23.52913838,3231
23.54000482,3291
23.55087126,3145
23.5617377,3350
23.57260414,3250
23.58347058,3291
23.59433702,3211
23.60520346,3209
23.6160699,3314
23.62693634,3324
23.63780278,3224
23.64866922,3235
23.65953566,3218
23.6704021,3225
23.68126854,3272
23.69213498,3250
23.70300142,3208
23.71386786,3234
23.7247343,3333
23.73560074,3245
23.74646718,3271
23.75733362,3255
23.76820006,3377
23.7790665,3457
23.78993294,3304
23.80079938,3353
23.81166582,3270
23.82253226,3438
23.8333987,3498
23.84426514,3480
23.85513158,3465
23.86599802,3458
23.87686446,3492
23.8877309,3592
23.89859734,3554
23.90946378,3514
23.92033022,3462
23.93119666,3408
23.9420631,3448
23.95292954,3367
23.96379598,3506
23.97466242,3430
23.98552886,3482
23.9963953,3393
24.00726174,3393
24.01812818,3300
24.02899462,3240
24.03986106,3364
24.0507275,3307
24.06159394,3281
24.07246038,3327
24.08332682,3384
24.09419326,3346
24.1050597,3329
24.11592614,3290
24.12679258,3373
24.13765902,3390
24.14852546,3327
24.1593919,3369
24.17025834,3383
24.18112478,3295
24.19199122,3351
24.20285766,3355
24.2137241,3324
24.22459054,3355
24.23545698,3337
24.24632342,3252
24.25718986,3284
24.2680563,3333
24.27892274,3456
24.28978918,3389
24.30065562,3471
24.31152206,3465
24.3223885,3421
24.33325494,3363
24.34412138,3343
24.35498782,3319
24.36585426,3359
24.3767207,3292
24.38758714,3400
24.39845358,3390
24.40932002,3262
24.42018646,3322
24.4310529,3358
24.44191934,3371
24.45278578,3352
24.46365222,3325
24.47451866,3303
24.4853851,3346
24.49625154,3344
24.50711798,3300
24.51798442,3425
24.52885086,3298
24.5397173,3326
24.55058374,3278
24.56145018,3262
24.57231662,3293
24.58318306,3303
24.5940495,3225
24.60491594,3249
24.61578238,3337
24.62664882,3276
24.63751526,3388
24.6483817,3119
24.65924814,3200
24.67011458,3137
24.68098102,3362
24.69184746,3212
24.7027139,3251
24.71358034,3190
24.72444678,3202
24.73531322,3156
24.74617966,3102
24.7570461,3183
24.76791254,3223
24.77877898,3115
24.78964542,3214
24.80051186,3250
24.8113783,3135
24.82224474,3226
24.83311118,3170
24.84397762,3162
24.85484406,3094
24.8657105,3121
24.87657694,3226
24.88744338,3181
24.89830982,3148
24.90917626,3128
24.9200427,3197
24.93090914,3160
24.94177558,3223
24.95264202,3262
24.96350846,3061
24.9743749,3191
24.98524134,3252
24.99610778,3112
25.00697422,3255
25.01784066,3165
25.0287071,3102
25.03957354,3198
25.05043998,3123
25.06130642,3122
25.07217286,3143
25.0830393,3127
25.09390574,3130
25.10477218,3218
25.11563862,3158
25.12650506,3285
25.1373715,3036
25.14823794,3260
25.15910438,3235
25.16997082,3189
25.18083726,3160
25.1917037,3200
25.20257014,3171
25.21343658,3080
25.22430302,3207
25.23516946,3132
25.2460359,3084
25.25690234,3052
25.26776878,3048
25.27863522,3104
25.28950166,3087
25.3003681,3084
25.31123454,3151
25.32210098,3142
25.33296742,3179
25.34383386,3030
25.3547003,3012
25.36556674,3037
25.37643318,2945
25.38729962,3050
25.39816606,3011
25.4090325,3005
25.41989894,3007
25.43076538,2932
25.44163182,3006
25.45249826,2921
25.4633647,3078
25.47423114,2981
25.48509758,3038
25.49596402,3017
25.50683046,3034
25.5176969,3038
25.52856334,2981
25.53942978,3139
25.55029622,3138
25.56116266,3109
25.5720291,3066
25.58289554,2964
25.59376198,3026
25.60462842,3094
25.61549486,2957
25.6263613,2992
25.63722774,3058
25.64809418,3029
25.65896062,2970
25.66982706,2981
25.6806935,3004
25.69155994,3024
25.70242638,3096
25.71329282,3015
25.72415926,3096
25.7350257,3049
25.74589214,3024
25.75675858,2962
25.76762502,2988
25.77849146,3080
25.7893579,3237
25.80022434,3180
25.81109078,3204
25.82195722,3064
25.83282366,3018
25.8436901,3079
25.85455654,3073
25.86542298,3129
25.87628942,3038
25.88715586,3146
25.8980223,3019
25.90888874,2994
25.91975518,3105
25.93062162,3065
25.94148806,3025
25.9523545,3025
25.96322094,2981
25.97408738,2991
25.98495382,3008
25.99582026,3032
26.0066867,2983
26.01755314,3045
26.02841958,2977
26.03928602,3067
26.05015246,2971
26.0610189,2999
26.07188534,2990
26.08275178,3120
26.09361822,3060
26.10448466,3145
26.1153511,3007
26.12621754,3005
26.13708398,2963
26.14795042,3050
26.15881686,2991
26.1696833,3065
26.18054974,2998
26.19141618,3127
26.20228262,3064
26.21314906,3047
26.2240155,3052
26.23488194,3044
26.24574838,2871
26.25661482,3085
26.26748126,3032
26.2783477,3035
26.28921414,2953
26.30008058,3112
26.31094702,3093
26.32181346,3212
26.3326799,3103
26.34354634,3166
26.35441278,3074
26.36527922,3051
26.37614566,3020
26.3870121,3019
26.39787854,3081
26.40874498,3068
26.41961142,3038
26.43047786,3114
26.4413443,2965
26.45221074,3138
26.46307718,3059
26.47394362,3010
26.48481006,3153
26.4956765,3107
26.50654294,3096
26.51740938,3111
26.52827582,3098
26.53914226,3114
26.5500087,3227
26.56087514,3123
26.57174158,3100
26.58260802,3064
26.59347446,3107
26.6043409,3094
26.61520734,3090
26.62607378,3088
26.63694022,3211
26.64780666,3121
26.6586731,3122
26.66953954,3188
26.68040598,3012
26.69127242,3134
26.70213886,3121
26.7130053,3163
26.72387174,3147
26.73473818,3085
26.74560462,3100
26.75647106,3184
26.7673375,3154
26.77820394,3138
26.78907038,3126
26.79993682,3168
26.81080326,3154
26.8216697,3170
26.83253614,3193
26.84340258,3305
26.85426902,3119
26.86513546,3205
26.8760019,3146
26.88686834,3218
26.89773478,3154
26.90860122,3227
26.91946766,3314
26.9303341,3289
26.94120054,3199
26.95206698,3253
26.96293342,3272
26.97379986,3323
26.9846663,3251
26.99553274,3348
27.00639918,3304
27.01726562,3396
27.02813206,3316
27.0389985,3300
27.04986494,3378
27.06073138,3308
27.07159782,3356
27.08246426,3354
27.0933307,3361
27.10419714,3488
27.11506358,3295
27.12593002,3384
27.13679646,3254
27.1476629,3352
27.15852934,3359
27.16939578,3328
27.18026222,3368
27.19112866,3352
27.2019951,3427
27.21286154,3420
27.22372798,3512
27.23459442,3449
27.24546086,3311
27.2563273,3489
27.26719374,3493
27.27806018,3427
27.28892662,3520
27.29979306,3451
27.3106595,3426
27.32152594,3557
27.33239238,3547
27.34325882,3606
27.35412526,3439
27.3649917,3548
27.37585814,3626
27.38672458,3546
27.39759102,3645
27.40845746,3592
27.4193239,3645
27.43019034,3558
27.44105678,3575
27.45192322,3542
27.46278966,3713
27.4736561,3704
27.48452254,3685
27.49538898,3817
27.50625542,3711
27.51712186,3766
27.5279883,3575
27.53885474,3780
27.54972118,3774
27.56058762,3937
27.57145406,3802
27.5823205,3873
27.59318694,3801
27.60405338,3922
27.61491982,3871
27.62578626,3975
27.6366527,4012
27.64751914,3848
27.65838558,4020
27.66925202,3999
27.68011846,3928
27.6909849,4025
27.70185134,4099
27.71271778,4043
27.72358422,4157
27.73445066,4175
27.7453171,4280
27.75618354,4147
27.76704998,4250
27.77791642,4438
27.78878286,4362
27.7996493,4287
27.81051574,4416
27.82138218,4456
27.83224862,4390
27.84311506,4538
27.8539815,4561
27.86484794,4467
27.87571438,4639
27.88658082,4605
27.89744726,4659
27.9083137,4754
27.91918014,4873
27.93004658,4863
27.94091302,4948
27.95177946,4863
27.9626459,5028
27.97351234,4998
27.98437878,5069
27.99524522,5228
28.00611166,5116
28.0169781,5295
28.02784454,5388
28.03871098,5490
28.04957742,5594
28.06044386,5476
28.0713103,5628
28.08217674,5705
28.09304318,5777
28.10390962,6013
28.11477606,5946
28.1256425,6117
28.13650894,6268
28.14737538,6312
28.15824182,6298
28.16910826,6479
28.1799747,6520
28.19084114,6695
28.20170758,6897
28.21257402,7112
28.22344046,7013
28.2343069,7089
28.24517334,7296
28.25603978,7588
28.26690622,8028
28.27777266,8060
28.2886391,8192
28.29950554,8572
28.31037198,8547
28.32123842,8775
28.33210486,9269
28.3429713,9667
28.35383774,9832
28.36470418,9896
28.37557062,10584
28.38643706,10869
28.3973035,11064
28.40816994,11652
28.41903638,12166
28.42990282,12774
28.44076926,13278
28.4516357,13783
28.46250214,14415
28.47336858,15139
28.48423502,15800
28.49510146,16499
28.5059679,16927
28.51683434,17924
28.52770078,18539
28.53856722,19327
28.54943366,19969
28.5603001,20602
28.57116654,21214
28.58203298,21848
28.59289942,22363
28.60376586,22163
28.6146323,22685
28.62549874,22811
28.63636518,22648
28.64723162,22012
28.65809806,21974
28.6689645,21446
28.67983094,20593
28.69069738,19944
28.70156382,19179
28.71243026,18403
28.7232967,17784
28.73416314,16803
28.74502958,16216
28.75589602,15574
28.76676246,14918
28.7776289,14136
28.78849534,13568
28.79936178,13228
28.81022822,12493
28.82109466,12165
28.8319611,11855
28.84282754,11373
28.85369398,11045
28.86456042,10746
28.87542686,10727
28.8862933,10302
28.89715974,9811
28.90802618,9680
28.91889262,9501
28.92975906,9272
28.9406255,9059
28.95149194,9099
28.96235838,8999
28.97322482,8800
28.98409126,8577
28.9949577,8364
29.00582414,8101
29.01669058,8153
29.02755702,7969
29.03842346,8133
29.0492899,7717
29.06015634,7753
29.07102278,7511
29.08188922,7409
29.09275566,7285
29.1036221,7360
29.11448854,7221
29.12535498,7063
29.13622142,7009
29.14708786,6969
29.1579543,6840
29.16882074,6620
29.17968718,6676
29.19055362,6546
29.20142006,6436
29.2122865,6453
29.22315294,6464
29.23401938,6427
29.24488582,6256
29.25575226,6240
29.2666187,6038
29.27748514,5982
29.28835158,5999
29.29921802,5995
29.31008446,5997
29.3209509,5891
29.33181734,5784
29.34268378,5817
29.35355022,5912
29.36441666,5666
29.3752831,5692
29.38614954,5687
29.39701598,5498
29.40788242,5501
29.41874886,5292
29.4296153,5505
29.44048174,5390
29.45134818,5313
29.46221462,5328
29.47308106,5206
29.4839475,5270
29.49481394,5370
29.50568038,5143
29.51654682,5269
29.52741326,5160
29.5382797,5167
29.54914614,5155
29.56001258,4923
29.57087902,5049
29.58174546,5091
29.5926119,4989
29.60347834,4872
29.61434478,5072
29.62521122,4947
29.63607766,4947
29.6469441,4937
29.65781054,4760
29.66867698,4756
29.67954342,4935
29.69040986,4803
29.7012763,4807
29.71214274,4881
29.72300918,4687
29.73387562,4743
29.74474206,4638
29.7556085,4740
29.76647494,4726
29.77734138,4625
29.78820782,4562
29.79907426,4678
29.8099407,4759
29.82080714,4647
29.83167358,4617
29.84254002,4511
29.85340646,4502
29.8642729,4616
29.87513934,4418
29.88600578,4570
29.89687222,4536
29.90773866,4572
29.9186051,4579
29.92947154,4498
29.94033798,4495
29.95120442,4461
29.96207086,4405
29.9729373,4541
29.98380374,4367
29.99467018,4454
