"Angle","Counts"
3.00243322,24882
3.01329966,24492
3.0241661,24455
3.03503254,24355
3.04589898,23940
3.05676542,23414
3.06763186,23329
3.0784983,23114
3.08936474,22836
3.10023118,22316
3.11109762,22216
3.12196406,22325
3.1328305,21784
3.14369694,21602
3.15456338,21426
3.16542982,21091
3.17629626,21012
3.1871627,20432
3.19802914,20636
3.20889558,20024
3.21976202,20173
3.23062846,19910
3.2414949,19455
3.25236134,19439
3.26322778,19338
3.27409422,18844
3.28496066,18928
3.2958271,18552
3.30669354,18563
3.31755998,18516
3.32842642,18311
3.33929286,17982
3.3501593,17942
3.36102574,17736
3.37189218,17310
3.38275862,17566
3.39362506,17068
3.4044915,16921
3.41535794,16802
3.42622438,16699
3.43709082,16492
3.44795726,16321
3.4588237,16284
3.46969014,16225
3.48055658,15989
3.49142302,15876
3.50228946,15536
3.5131559,15475
3.52402234,15217
3.53488878,15318
3.54575522,15260
3.55662166,15159
3.5674881,14862
3.57835454,14823
3.58922098,14722
3.60008742,14591
3.61095386,14509
3.6218203,14239
3.63268674,14039
3.64355318,14019
3.65441962,14068
3.66528606,13762
3.6761525,13773
3.68701894,13451
3.69788538,13519
3.70875182,13302
3.71961826,13481
3.7304847,13134
3.74135114,12796
3.75221758,12856
3.76308402,12932
3.77395046,12687
3.7848169,12568
3.79568334,12462
3.80654978,12283
3.81741622,12285
3.82828266,12451
3.8391491,12064
3.85001554,11994
3.86088198,12003
3.87174842,11971
3.88261486,11688
3.8934813,11588
3.90434774,11565
3.91521418,11692
3.92608062,11380
3.93694706,11256
3.9478135,11146
3.95867994,11232
3.96954638,11032
3.98041282,10873
3.99127926,10875
4.0021457,10722
4.01301214,10694
4.02387858,10516
4.03474502,10619
4.04561146,10436
4.0564779,10578
4.06734434,10478
4.07821078,10231
4.08907722,10017
4.09994366,9886
4.1108101,10163
4.12167654,9939
4.13254298,9854
4.14340942,9796
4.15427586,9847
4.1651423,9564
4.17600874,9681
4.18687518,9626
4.19774162,9674
4.20860806,9377
4.2194745,9473
4.23034094,9480
4.24120738,9263
4.25207382,9165
4.26294026,9255
4.2738067,9102
4.28467314,8995
4.29553958,8939
4.30640602,8913
4.31727246,8938
4.3281389,8838
4.33900534,8622
4.34987178,8726
4.36073822,8546
4.37160466,8549
4.3824711,8581
4.39333754,8449
4.40420398,8432
4.41507042,8303
4.42593686,8325
4.4368033,8092
4.44766974,8188
4.45853618,8210
4.46940262,8218
4.48026906,7962
4.4911355,8031
4.50200194,8162
4.51286838,7776
4.52373482,7866
4.53460126,7751
4.5454677,7739
4.55633414,7830
4.56720058,7735
4.57806702,7674
4.58893346,7624
4.5997999,7543
4.61066634,7477
4.62153278,7631
4.63239922,7590
4.64326566,7378
4.6541321,7417
4.66499854,7441
4.67586498,7188
4.68673142,7150
4.69759786,7132
4.7084643,7296
4.71933074,7182
4.73019718,7057
4.74106362,6924
4.75193006,7135
4.7627965,7050
4.77366294,7039
4.78452938,6949
4.79539582,6948
4.80626226,6947
4.8171287,6687
4.82799514,6769
4.83886158,6849
4.84972802,6796
4.86059446,6606
4.8714609,6814
4.88232734,6769
4.89319378,6676
4.90406022,6720
4.91492666,6748
4.9257931,6652
4.93665954,6554
4.94752598,6509
4.95839242,6502
4.96925886,6574
4.9801253,6382
4.99099174,6512
5.00185818,6420
5.01272462,6462
5.02359106,6447
5.0344575,6481
5.04532394,6320
5.05619038,6302
5.06705682,6513
5.07792326,6273
5.0887897,6313
5.09965614,6376
5.11052258,6243
5.12138902,6238
5.13225546,6138
5.1431219,6056
5.15398834,6145
5.16485478,6124
5.17572122,6166
5.18658766,6123
5.1974541,5990
5.20832054,6020
5.21918698,6029
5.23005342,5981
5.24091986,6150
5.2517863,6062
5.26265274,5967
5.27351918,5889
5.28438562,6067
5.29525206,5932
5.3061185,5994
5.31698494,5983
5.32785138,6036
5.33871782,6025
5.34958426,6027
5.3604507,5840
5.37131714,5928
5.38218358,5966
5.39305002,5864
5.40391646,5925
5.4147829,5848
5.42564934,5786
5.43651578,5891
5.44738222,5752
5.45824866,5780
5.4691151,5760
5.47998154,5822
5.49084798,5733
5.50171442,5702
5.51258086,5597
5.5234473,5815
5.53431374,5746
5.54518018,5762
5.55604662,5768
5.56691306,5820
5.5777795,5731
5.58864594,5807
5.59951238,5716
5.61037882,5700
5.62124526,5766
5.6321117,5736
5.64297814,5625
5.65384458,5659
5.66471102,5676
5.67557746,5710
5.6864439,5772
5.69731034,5559
5.70817678,5762
5.71904322,5603
5.72990966,5732
5.7407761,5620
5.75164254,5667
5.76250898,5640
5.77337542,5718
5.78424186,5608
5.7951083,5660
5.80597474,5460
5.81684118,5728
5.82770762,5646
5.83857406,5533
5.8494405,5569
5.86030694,5669
5.87117338,5821
5.88203982,5638
5.89290626,5726
5.9037727,5683
5.91463914,5611
5.92550558,5847
5.93637202,5629
5.94723846,5693
5.9581049,5856
5.96897134,5725
5.97983778,5668
5.99070422,5774
6.00157066,5766
6.0124371,5859
6.02330354,5655
6.03416998,5674
6.04503642,5727
6.05590286,5687
6.0667693,5777
6.07763574,5688
6.08850218,5594
6.09936862,5812
6.11023506,5771
6.1211015,5810
6.13196794,5599
6.14283438,5747
6.15370082,5706
6.16456726,5790
6.1754337,5645
6.18630014,5658
6.19716658,5709
6.20803302,5761
6.21889946,5875
6.2297659,5706
6.24063234,5631
6.25149878,5675
6.26236522,5737
6.27323166,5700
6.2840981,5764
6.29496454,5631
6.30583098,5880
6.31669742,5803
6.32756386,5826
6.3384303,5724
6.34929674,5737
6.36016318,5902
6.37102962,5764
6.38189606,5835
6.3927625,5770
6.40362894,5878
6.41449538,5844
6.42536182,5741
6.43622826,5910
6.4470947,5747
6.45796114,5887
6.46882758,5737
6.47969402,5888
6.49056046,5914
6.5014269,5836
6.51229334,5941
6.52315978,5861
6.53402622,5918
6.54489266,5844
6.5557591,5878
6.56662554,5952
6.57749198,5887
6.58835842,5949
6.59922486,5803
6.6100913,5942
6.62095774,5955
6.63182418,5859
6.64269062,6002
6.65355706,5902
6.6644235,5724
6.67528994,5751
6.68615638,5957
6.69702282,5910
6.70788926,5920
6.7187557,5941
6.72962214,5955
6.74048858,5930
6.75135502,5971
6.76222146,5844
6.7730879,6029
6.78395434,5986
6.79482078,5975
6.80568722,6065
6.81655366,5993
6.8274201,6009
6.83828654,6021
6.84915298,5987
6.86001942,5950
6.87088586,6038
6.8817523,6022
6.89261874,6043
6.90348518,5874
6.91435162,5901
6.92521806,6079
6.9360845,5943
6.94695094,6048
6.95781738,6162
6.96868382,6011
6.97955026,6001
6.9904167,6045
7.00128314,6110
7.01214958,6077
7.02301602,6131
7.03388246,6027
7.0447489,5991
7.05561534,5999
7.06648178,6113
7.07734822,5980
7.08821466,6124
7.0990811,6137
7.10994754,6135
7.12081398,6148
7.13168042,6135
7.14254686,6024
7.1534133,6115
7.16427974,6223
7.17514618,6092
7.18601262,6080
7.19687906,6144
7.2077455,6112
7.21861194,6273
7.22947838,6214
7.24034482,6127
7.25121126,6061
7.2620777,6217
7.27294414,6068
7.28381058,6172
7.29467702,6137
7.30554346,6198
7.3164099,6101
7.32727634,6261
7.33814278,6156
7.34900922,6250
7.35987566,6229
7.3707421,6390
7.38160854,6340
7.39247498,6205
7.40334142,6118
7.41420786,6109
7.4250743,6270
7.43594074,6338
7.44680718,6386
7.45767362,6269
7.46854006,6200
7.4794065,6209
7.49027294,6312
7.50113938,6404
7.51200582,6378
7.52287226,6360
7.5337387,6195
7.54460514,6505
7.55547158,6534
7.56633802,6380
7.57720446,6379
7.5880709,6394
7.59893734,6249
7.60980378,6530
7.62067022,6274
7.63153666,6335
7.6424031,6336
7.65326954,6416
7.66413598,6215
7.67500242,6225
7.68586886,6366
7.6967353,6371
7.70760174,6447
7.71846818,6385
7.72933462,6379
7.74020106,6301
7.7510675,6469
7.76193394,6216
7.77280038,6385
7.78366682,6270
7.79453326,6457
7.8053997,6373
7.81626614,6472
7.82713258,6498
7.83799902,6449
7.84886546,6414
7.8597319,6306
7.87059834,6488
7.88146478,6376
7.89233122,6303
7.90319766,6388
7.9140641,6629
7.92493054,6364
7.93579698,6386
7.94666342,6423
7.95752986,6425
7.9683963,6598
7.97926274,6472
7.99012918,6477
8.00099562,6575
8.01186206,6658
8.0227285,6605
8.03359494,6525
8.04446138,6621
8.05532782,6425
8.06619426,6653
8.0770607,6528
8.08792714,6358
8.09879358,6670
8.10966002,6495
8.12052646,6668
8.1313929,6565
8.14225934,6635
8.15312578,6516
8.16399222,6539
8.17485866,6599
8.1857251,6634
8.19659154,6652
8.20745798,6500
8.21832442,6683
8.22919086,6661
8.2400573,6574
8.25092374,6776
8.26179018,6701
8.27265662,6712
8.28352306,6762
8.2943895,6709
8.30525594,6601
8.31612238,6690
8.32698882,6665
8.33785526,6663
8.3487217,6644
8.35958814,6668
8.37045458,6744
8.38132102,6627
8.39218746,6768
8.4030539,6681
8.41392034,6576
8.42478678,6818
8.43565322,6859
8.44651966,6788
8.4573861,6674
8.46825254,6745
8.47911898,6818
8.48998542,6602
8.50085186,6847
8.5117183,6834
8.52258474,6789
8.53345118,6748
8.54431762,6671
8.55518406,6731
8.5660505,6945
8.57691694,6655
8.58778338,6854
8.59864982,6871
8.60951626,6906
8.6203827,6814
8.63124914,6859
8.64211558,6816
8.65298202,6734
8.66384846,6881
8.6747149,6888
8.68558134,6786
8.69644778,6884
8.70731422,6773
8.71818066,6760
8.7290471,6725
8.73991354,6898
8.75077998,7000
8.76164642,6930
8.77251286,6763
8.7833793,6928
8.79424574,6779
8.80511218,6921
8.81597862,6823
8.82684506,6751
8.8377115,6897
8.84857794,6992
8.85944438,6978
8.87031082,6944
8.88117726,6926
8.8920437,6884
8.90291014,6772
8.91377658,7000
8.92464302,6900
8.93550946,7043
8.9463759,7016
8.95724234,6922
8.96810878,6801
8.97897522,7079
8.98984166,7007
9.0007081,7022
9.01157454,7112
9.02244098,7115
9.03330742,7223
9.04417386,7196
9.0550403,7089
9.06590674,6997
9.07677318,6932
9.08763962,7092
9.09850606,7163
9.1093725,6983
9.12023894,6967
9.13110538,7228
9.14197182,7189
9.15283826,7083
9.1637047,7216
9.17457114,7134
9.18543758,7214
9.19630402,7365
9.20717046,7287
9.2180369,7301
9.22890334,7266
9.23976978,7290
9.25063622,7216
9.26150266,7213
9.2723691,7342
9.28323554,7348
9.29410198,7223
9.30496842,7170
9.31583486,7319
9.3267013,7515
9.33756774,7321
9.34843418,7272
9.35930062,7448
9.37016706,7420
9.3810335,7427
9.39189994,7454
9.40276638,7390
9.41363282,7366
9.42449926,7537
9.4353657,7593
9.44623214,7481
9.45709858,7590
9.46796502,7616
9.47883146,7629
9.4896979,7652
9.50056434,7687
9.51143078,7670
9.52229722,7730
9.53316366,7646
9.5440301,8085
9.55489654,7725
9.56576298,7892
9.57662942,7938
9.58749586,7955
9.5983623,8023
9.60922874,8261
9.62009518,8089
9.63096162,8033
9.64182806,8280
9.6526945,8184
9.66356094,8241
9.67442738,8287
9.68529382,8358
9.69616026,8477
9.7070267,8385
9.71789314,8462
9.72875958,8577
9.73962602,8461
9.75049246,8644
9.7613589,8504
9.77222534,8506
9.78309178,8650
9.79395822,8661
9.80482466,8501
9.8156911,8454
9.82655754,8729
9.83742398,8664
9.84829042,8729
9.85915686,8741
9.8700233,8686
9.88088974,8649
9.89175618,8705
9.90262262,8783
9.91348906,8598
9.9243555,8568
9.93522194,8519
9.94608838,8443
9.95695482,8192
9.96782126,8178
9.9786877,8136
9.98955414,7860
10.00042058,7899
10.01128702,7816
10.02215346,7809
10.0330199,7855
10.04388634,7600
10.05475278,7586
10.06561922,7636
10.07648566,7595
10.0873521,7497
10.09821854,7537
10.10908498,7430
10.11995142,7372
10.13081786,7381
10.1416843,7306
10.15255074,7292
10.16341718,7192
10.17428362,7163
10.18515006,7216
10.1960165,7047
10.20688294,7058
10.21774938,7267
10.22861582,7131
10.23948226,7024
10.2503487,7028
10.26121514,7021
10.27208158,7050
10.28294802,7018
10.29381446,7004
10.3046809,6836
10.31554734,6973
10.32641378,6865
10.33728022,6862
10.34814666,6666
10.3590131,6907
10.36987954,6911
10.38074598,6791
10.39161242,6771
10.40247886,6718
10.4133453,6768
10.42421174,6676
10.43507818,6647
10.44594462,6660
10.45681106,6560
10.4676775,6621
10.47854394,6422
10.48941038,6688
10.50027682,6542
10.51114326,6444
10.5220097,6598
10.53287614,6397
10.54374258,6485
10.55460902,6423
10.56547546,6511
10.5763419,6382
10.58720834,6278
10.59807478,6398
10.60894122,6493
10.61980766,6435
10.6306741,6320
10.64154054,6237
10.65240698,6352
10.66327342,6134
10.67413986,6036
10.6850063,6166
10.69587274,6014
10.70673918,6037
10.71760562,6047
10.72847206,5893
10.7393385,6002
10.75020494,5816
10.76107138,5822
10.77193782,5777
10.78280426,5882
10.7936707,5739
10.80453714,5792
10.81540358,5764
10.82627002,5649
10.83713646,5574
10.8480029,5637
10.85886934,5707
10.86973578,5727
10.88060222,5595
10.89146866,5702
10.9023351,5567
10.91320154,5561
10.92406798,5633
10.93493442,5533
10.94580086,5544
10.9566673,5614
10.96753374,5416
10.97840018,5471
10.98926662,5386
11.00013306,5463
11.0109995,5317
11.02186594,5340
11.03273238,5322
11.04359882,5242
11.05446526,5159
11.0653317,5216
11.07619814,5255
11.08706458,5217
11.09793102,5164
11.10879746,5188
11.1196639,5273
11.13053034,5210
11.14139678,5005
11.15226322,5133
11.16312966,5074
11.1739961,5099
11.18486254,5001
11.19572898,5167
11.20659542,4979
11.21746186,4935
11.2283283,4938
11.23919474,4926
11.25006118,4939
11.26092762,4858
11.27179406,4870
11.2826605,4839
11.29352694,4837
11.30439338,4789
11.31525982,4842
11.32612626,4899
11.3369927,4815
11.34785914,4784
11.35872558,4803
11.36959202,4771
11.38045846,4664
11.3913249,4651
11.40219134,4666
11.41305778,4748
11.42392422,4629
11.43479066,4695
11.4456571,4624
11.45652354,4624
11.46738998,4524
11.47825642,4622
11.48912286,4520
11.4999893,4601
11.51085574,4489
11.52172218,4536
11.53258862,4434
11.54345506,4368
11.5543215,4459
11.56518794,4370
11.57605438,4311
11.58692082,4306
11.59778726,4427
11.6086537,4372
11.61952014,4444
11.63038658,4351
11.64125302,4273
11.65211946,4321
11.6629859,4497
11.67385234,4334
11.68471878,4440
11.69558522,4200
11.70645166,4311
11.7173181,4206
11.72818454,4163
11.73905098,4179
11.74991742,4122
11.76078386,4244
11.7716503,4161
11.78251674,4085
11.79338318,4244
11.80424962,4140
11.81511606,4163
11.8259825,4047
11.83684894,3951
11.84771538,4174
11.85858182,4164
11.86944826,4083
11.8803147,4139
11.89118114,4053
11.90204758,4052
11.91291402,4073
11.92378046,3921
11.9346469,4093
11.94551334,4024
11.95637978,4017
11.96724622,3963
11.97811266,3923
11.9889791,3995
11.99984554,3908
12.01071198,4025
12.02157842,3828
12.03244486,3847
12.0433113,3769
12.05417774,3948
12.06504418,3878
12.07591062,3853
12.08677706,3952
12.0976435,3884
12.10850994,3907
12.11937638,3825
12.13024282,3793
12.14110926,3795
12.1519757,3851
12.16284214,3751
12.17370858,3775
12.18457502,3777
12.19544146,3784
12.2063079,3803
12.21717434,3721
12.22804078,3765
12.23890722,3826
12.24977366,3853
12.2606401,3734
12.27150654,3692
12.28237298,3747
12.29323942,3634
12.30410586,3748
12.3149723,3722
12.32583874,3739
12.33670518,3673
12.34757162,3612
12.35843806,3598
12.3693045,3562
12.38017094,3676
12.39103738,3677
12.40190382,3614
12.41277026,3593
12.4236367,3573
12.43450314,3627
12.44536958,3567
12.45623602,3524
12.46710246,3563
12.4779689,3590
12.48883534,3561
12.49970178,3554
12.51056822,3603
12.52143466,3560
12.5323011,3524
12.54316754,3483
12.55403398,3505
12.56490042,3603
12.57576686,3469
12.5866333,3536
12.59749974,3576
12.60836618,3495
12.61923262,3476
12.63009906,3540
12.6409655,3430
12.65183194,3463
12.66269838,3484
12.67356482,3536
12.68443126,3361
12.6952977,3389
12.70616414,3439
12.71703058,3343
12.72789702,3424
12.73876346,3360
12.7496299,3409
12.76049634,3428
12.77136278,3444
12.78222922,3428
12.79309566,3463
12.8039621,3402
12.81482854,3347
12.82569498,3307
12.83656142,3430
12.84742786,3334
12.8582943,3308
12.86916074,3217
12.88002718,3480
12.89089362,3372
12.90176006,3384
12.9126265,3339
12.92349294,3418
12.93435938,3436
12.94522582,3400
12.95609226,3265
12.9669587,3301
12.97782514,3422
12.98869158,3341
12.99955802,3276
13.01042446,3356
13.0212909,3361
13.03215734,3268
13.04302378,3383
13.05389022,3319
13.06475666,3423
13.0756231,3269
13.08648954,3238
13.09735598,3275
13.10822242,3356
13.11908886,3292
13.1299553,3352
13.14082174,3272
13.15168818,3303
13.16255462,3230
13.17342106,3120
13.1842875,3232
13.19515394,3226
13.20602038,3238
13.21688682,3222
13.22775326,3220
13.2386197,3359
13.24948614,3183
13.26035258,3236
13.27121902,3267
13.28208546,3208
13.2929519,3219
13.30381834,3215
13.31468478,3177
13.32555122,3250
13.33641766,3218
13.3472841,3204
13.35815054,3199
13.36901698,3274
13.37988342,3205
13.39074986,3031
13.4016163,3335
13.41248274,3159
13.42334918,3089
13.43421562,3166
13.44508206,3183
13.4559485,3174
13.46681494,3234
13.47768138,3094
13.48854782,3135
13.49941426,3083
13.5102807,3125
13.52114714,3172
13.53201358,3095
13.54288002,3239
13.55374646,3010
13.5646129,3164
13.57547934,3122
13.58634578,3092
13.59721222,3083
13.60807866,3148
13.6189451,3171
13.62981154,3003
13.64067798,3130
13.65154442,3021
13.66241086,3130
13.6732773,3102
13.68414374,3111
13.69501018,2999
13.70587662,3115
13.71674306,3039
13.7276095,3006
13.73847594,3126
13.74934238,3055
13.76020882,3145
13.77107526,3168
13.7819417,3074
13.79280814,3139
13.80367458,3102
13.81454102,3094
13.82540746,3092
13.8362739,3055
13.84714034,3012
13.85800678,3069
13.86887322,3099
13.87973966,3000
13.8906061,3164
13.90147254,3055
13.91233898,3038
13.92320542,3059
13.93407186,3027
13.9449383,3074
13.95580474,3049
13.96667118,2998
13.97753762,3130
13.98840406,3036
13.9992705,3044
14.01013694,3076
14.02100338,3068
14.03186982,2954
14.04273626,2984
14.0536027,3017
14.06446914,2937
14.07533558,2953
14.08620202,3054
14.09706846,3093
14.1079349,3048
14.11880134,3025
14.12966778,3196
14.14053422,2980
14.15140066,3165
14.1622671,3090
14.17313354,3090
14.18399998,2997
14.19486642,3174
14.20573286,3065
14.2165993,2968
14.22746574,3110
14.23833218,3010
14.24919862,3046
14.26006506,3054
14.2709315,3035
14.28179794,2958
14.29266438,3093
14.30353082,3057
14.31439726,3158
14.3252637,2958
14.33613014,2990
14.34699658,3066
14.35786302,3073
14.36872946,3085
14.3795959,3011
14.39046234,2980
14.40132878,3009
14.41219522,3019
14.42306166,3079
14.4339281,2986
14.44479454,3011
14.45566098,2953
14.46652742,3024
14.47739386,2930
14.4882603,3018
14.49912674,3039
14.50999318,3097
14.52085962,2995
14.53172606,2985
14.5425925,3076
14.55345894,3042
14.56432538,3158
14.57519182,3051
14.58605826,3002
14.5969247,3111
14.60779114,3077
14.61865758,3006
14.62952402,3061
14.64039046,3017
14.6512569,3056
14.66212334,3148
14.67298978,3015
14.68385622,3020
14.69472266,2968
14.7055891,2990
14.71645554,2976
14.72732198,3115
14.73818842,3047
14.74905486,2963
14.7599213,3046
14.77078774,2918
14.78165418,3068
14.79252062,2976
14.80338706,3071
14.8142535,2943
14.82511994,3077
14.83598638,3078
14.84685282,3025
14.85771926,2995
14.8685857,3066
14.87945214,2901
14.89031858,3021
14.90118502,3006
14.91205146,3072
14.9229179,3092
14.93378434,3097
14.94465078,3009
14.95551722,3195
14.96638366,3022
14.9772501,2980
14.98811654,3101
14.99898298,2963
15.00984942,2976
15.02071586,3029
15.0315823,2943
15.04244874,2884
15.05331518,2826
15.06418162,2977
15.07504806,2894
15.0859145,2921
15.09678094,3030
15.10764738,3081
15.11851382,3047
15.12938026,2962
15.1402467,2998
15.15111314,3037
15.16197958,2963
15.17284602,3012
15.18371246,3019
15.1945789,3027
15.20544534,2906
15.21631178,3030
15.22717822,3029
15.23804466,3093
15.2489111,3115
15.25977754,2998
15.27064398,2937
15.28151042,3084
15.29237686,2928
15.3032433,2987
15.31410974,3013
15.32497618,2976
15.33584262,2949
15.34670906,3009
15.3575755,2878
15.36844194,3027
15.37930838,2952
15.39017482,3013
15.40104126,3067
15.4119077,3083
15.42277414,2966
15.43364058,2910
15.44450702,2941
15.45537346,2991
15.4662399,2948
15.47710634,2974
15.48797278,3004
15.49883922,3045
15.50970566,2877
15.5205721,2929
15.53143854,3000
15.54230498,2985
15.55317142,2937
15.56403786,2970
15.5749043,3011
15.58577074,2896
15.59663718,2881
15.60750362,3000
15.61837006,2941
15.6292365,2992
15.64010294,2893
15.65096938,2909
15.66183582,2959
15.67270226,3136
15.6835687,2953
15.69443514,3056
15.70530158,3008
15.71616802,2982
15.72703446,2877
15.7379009,3068
15.74876734,2981
15.75963378,3029
15.77050022,3020
15.78136666,3000
15.7922331,3029
15.80309954,2972
15.81396598,2996
15.82483242,2949
15.83569886,2874
15.8465653,2952
15.85743174,3040
15.86829818,2851
15.87916462,2890
15.89003106,2888
15.9008975,2894
15.91176394,2839
15.92263038,2879
15.93349682,2989
15.94436326,2918
15.9552297,2843
15.96609614,2988
15.97696258,3039
15.98782902,2954
15.99869546,2899
16.0095619,2910
16.02042834,2975
16.03129478,2984
16.04216122,2939
16.05302766,2906
16.0638941,2974
16.07476054,2988
16.08562698,2978
16.09649342,2926
16.10735986,2909
16.1182263,2918
16.12909274,3000
16.13995918,2961
16.15082562,2943
16.16169206,2890
16.1725585,2970
16.18342494,2878
16.19429138,2925
16.20515782,2791
16.21602426,2886
16.2268907,2896
16.23775714,2952
16.24862358,2885
16.25949002,2944
16.27035646,2886
16.2812229,2939
16.29208934,2994
16.30295578,2929
16.31382222,2874
16.32468866,2820
16.3355551,2879
16.34642154,2915
16.35728798,2878
16.36815442,2897
16.37902086,3005
16.3898873,2950
16.40075374,2933
16.41162018,2869
16.42248662,2914
16.43335306,2911
16.4442195,2855
16.45508594,2937
16.46595238,2868
16.47681882,2951
16.48768526,2899
16.4985517,2984
16.50941814,2904
16.52028458,2935
16.53115102,2869
16.54201746,2884
16.5528839,2827
16.56375034,2901
16.57461678,2894
16.58548322,2916
16.59634966,3023
16.6072161,2889
16.61808254,2930
16.62894898,2983
16.63981542,2959
16.65068186,2927
16.6615483,2971
16.67241474,2895
16.68328118,2947
16.69414762,2870
16.70501406,2925
16.7158805,2938
16.72674694,2871
16.73761338,2856
16.74847982,2969
16.75934626,2988
16.7702127,2921
16.78107914,3021
16.79194558,2900
16.80281202,3036
16.81367846,3000
16.8245449,3004
16.83541134,2944
16.84627778,2948
16.85714422,2886
16.86801066,2908
16.8788771,2880
16.88974354,2901
16.90060998,2999
16.91147642,2878
16.92234286,2971
16.9332093,2884
16.94407574,2918
16.95494218,2949
16.96580862,2830
16.97667506,2948
16.9875415,2895
16.99840794,2855
17.00927438,2968
17.02014082,2855
17.03100726,2966
17.0418737,2982
17.05274014,2866
17.06360658,2925
17.07447302,2890
17.08533946,2801
17.0962059,2958
17.10707234,2925
17.11793878,2895
17.12880522,2982
17.13967166,2919
17.1505381,2923
17.16140454,2875
17.17227098,2803
17.18313742,2876
17.19400386,2974
17.2048703,2867
17.21573674,2967
17.22660318,2809
17.23746962,3002
17.24833606,2997
17.2592025,2816
17.27006894,2901
17.28093538,2875
17.29180182,2877
17.30266826,3038
17.3135347,3088
17.32440114,2900
17.33526758,2981
17.34613402,2897
17.35700046,2886
17.3678669,2927
17.37873334,2907
17.38959978,2957
17.40046622,2860
17.41133266,2946
17.4221991,2865
17.43306554,2801
17.44393198,2966
17.45479842,2903
17.46566486,2827
17.4765313,3029
17.48739774,2896
17.49826418,2938
17.50913062,2874
17.51999706,2973
17.5308635,2886
17.54172994,2983
17.55259638,3005
17.56346282,2965
17.57432926,2948
17.5851957,2908
17.59606214,2961
17.60692858,2921
17.61779502,3072
17.62866146,2897
17.6395279,2940
17.65039434,2907
17.66126078,2897
17.67212722,2887
17.68299366,2837
17.6938601,2842
17.70472654,2972
17.71559298,2858
17.72645942,3023
17.73732586,2943
17.7481923,2926
17.75905874,2930
17.76992518,2974
17.78079162,2939
17.79165806,3005
17.8025245,2824
17.81339094,2970
17.82425738,2987
17.83512382,2984
17.84599026,2949
17.8568567,2984
17.86772314,3025
17.87858958,2837
17.88945602,2859
17.90032246,2937
17.9111889,2931
17.92205534,2945
17.93292178,2911
17.94378822,2841
17.95465466,2985
17.9655211,2871
17.97638754,2940
17.98725398,2864
17.99812042,2984
18.00898686,2954
18.0198533,2830
18.03071974,2978
18.04158618,3067
18.05245262,3014
18.06331906,3000
18.0741855,3005
18.08505194,2915
18.09591838,2993
18.10678482,2978
18.11765126,2993
18.1285177,2923
18.13938414,2931
18.15025058,2917
18.16111702,2982
18.17198346,2953
18.1828499,2930
18.19371634,2924
18.20458278,3032
18.21544922,2995
18.22631566,3058
18.2371821,2871
18.24804854,2976
18.25891498,2900
18.26978142,2858
18.28064786,3016
18.2915143,2969
18.30238074,3002
18.31324718,2875
18.32411362,2928
18.33498006,2941
18.3458465,3039
18.35671294,2902
18.36757938,2984
18.37844582,2952
18.38931226,3001
18.4001787,2939
18.41104514,2983
18.42191158,2882
18.43277802,2959
18.44364446,2915
18.4545109,2982
18.46537734,3012
18.47624378,2950
18.48711022,2887
18.49797666,2992
18.5088431,2987
18.51970954,3095
18.53057598,2940
18.54144242,2903
18.55230886,2950
18.5631753,2911
18.57404174,2990
18.58490818,2901
18.59577462,2950
18.60664106,2984
18.6175075,2929
18.62837394,3015
18.63924038,2931
18.65010682,2976
18.66097326,3037
18.6718397,3069
18.68270614,2966
18.69357258,2991
18.70443902,3095
18.71530546,2966
18.7261719,3062
18.73703834,2938
18.74790478,2972
18.75877122,3100
18.76963766,3042
18.7805041,2785
18.79137054,3000
18.80223698,2974
18.81310342,3026
18.82396986,2999
18.8348363,3025
18.84570274,2908
18.85656918,3029
18.86743562,3039
18.87830206,2918
18.8891685,3089
18.90003494,3031
18.91090138,2986
18.92176782,2962
18.93263426,3071
18.9435007,3041
18.95436714,2995
18.96523358,3075
18.97610002,3012
18.98696646,3017
18.9978329,3088
19.00869934,3002
19.01956578,3023
19.03043222,3001
19.04129866,3022
19.0521651,2994
19.06303154,3123
19.07389798,3028
19.08476442,3009
19.09563086,3061
19.1064973,3071
19.11736374,3100
19.12823018,3057
19.13909662,3052
19.14996306,2936
19.1608295,3014
19.17169594,3090
19.18256238,3094
19.19342882,3088
19.20429526,2992
19.2151617,3102
19.22602814,3056
19.23689458,3106
19.24776102,3080
19.25862746,3042
19.2694939,3044
19.28036034,3119
19.29122678,3135
19.30209322,3066
19.31295966,3079
19.3238261,3178
19.33469254,3019
19.34555898,3040
19.35642542,2996
19.36729186,2986
19.3781583,2997
19.38902474,3065
19.39989118,3059
19.41075762,3163
19.42162406,3103
19.4324905,3126
19.44335694,3090
19.45422338,3135
19.46508982,3138
19.47595626,3177
19.4868227,3116
19.49768914,3079
19.50855558,3094
19.51942202,3162
19.53028846,3057
19.5411549,3140
19.55202134,3142
19.56288778,3171
19.57375422,3094
19.58462066,3134
19.5954871,3159
19.60635354,3111
19.61721998,3199
19.62808642,3150
19.63895286,3160
19.6498193,3211
19.66068574,3136
19.67155218,3203
19.68241862,3116
19.69328506,3204
19.7041515,3264
19.71501794,3162
19.72588438,3165
19.73675082,3132
19.74761726,3234
19.7584837,3265
19.76935014,3201
19.78021658,3265
19.79108302,3209
19.80194946,3336
19.8128159,3178
19.82368234,3144
19.83454878,3249
19.84541522,3416
19.85628166,3316
19.8671481,3277
19.87801454,3255
19.88888098,3332
19.89974742,3340
19.91061386,3274
19.9214803,3490
19.93234674,3381
19.94321318,3252
19.95407962,3458
19.96494606,3323
19.9758125,3446
19.98667894,3497
19.99754538,3485
20.00841182,3450
20.01927826,3489
20.0301447,3426
20.04101114,3428
20.05187758,3388
20.06274402,3416
20.07361046,3497
20.0844769,3450
20.09534334,3504
20.10620978,3391
20.11707622,3535
20.12794266,3434
20.1388091,3477
20.14967554,3530
20.16054198,3420
20.17140842,3480
20.18227486,3619
20.1931413,3589
20.20400774,3479
20.21487418,3482
20.22574062,3553
20.23660706,3520
20.2474735,3485
20.25833994,3518
20.26920638,3431
20.28007282,3569
20.29093926,3345
20.3018057,3443
20.31267214,3523
20.32353858,3462
20.33440502,3437
20.34527146,3419
20.3561379,3302
20.36700434,3359
20.37787078,3241
20.38873722,3299
20.39960366,3379
20.4104701,3256
20.42133654,3273
20.43220298,3338
20.44306942,3275
20.45393586,3201
20.4648023,3230
20.47566874,3178
20.48653518,3171
20.49740162,3321
20.50826806,3314
20.5191345,3240
20.53000094,3177
20.54086738,3170
20.55173382,3253
20.56260026,3203
20.5734667,3208
20.58433314,3177
20.59519958,3149
20.60606602,3240
20.61693246,3240
20.6277989,3141
20.63866534,3300
20.64953178,3278
20.66039822,3196
20.67126466,3098
20.6821311,3272
20.69299754,3163
20.70386398,3151
20.71473042,3348
20.72559686,3276
20.7364633,3134
20.74732974,3341
20.75819618,3131
20.76906262,3213
20.77992906,3169
20.7907955,3204
20.80166194,3145
20.81252838,3130
20.82339482,3187
20.83426126,3052
20.8451277,3160
20.85599414,3244
20.86686058,3235
20.87772702,3129
20.88859346,3165
20.8994599,3150
20.91032634,3216
20.92119278,3073
20.93205922,3318
20.94292566,3142
20.9537921,3056
20.96465854,3019
20.97552498,3152
20.98639142,3001
20.99725786,3147
21.0081243,3168
21.01899074,3313
21.02985718,3116
21.04072362,3126
21.05159006,3130
21.0624565,3194
21.07332294,3191
21.08418938,3193
21.09505582,3130
21.10592226,3106
21.1167887,3061
21.12765514,3139
21.13852158,3058
21.14938802,3219
21.16025446,3142
21.1711209,3219
21.18198734,3238
21.19285378,3120
21.20372022,3138
21.21458666,3250
21.2254531,3156
21.23631954,3184
21.24718598,3140
21.25805242,3085
21.26891886,3179
21.2797853,3149
21.29065174,3139
21.30151818,3060
21.31238462,3145
21.32325106,3208
21.3341175,3227
21.34498394,3165
21.35585038,3067
21.36671682,3150
21.37758326,3094
21.3884497,3114
21.39931614,3225
21.41018258,3189
21.42104902,3166
21.43191546,3072
21.4427819,3128
21.45364834,3062
21.46451478,3136
21.47538122,3155
21.48624766,3218
21.4971141,3158
21.50798054,3174
21.51884698,3076
21.52971342,3148
21.54057986,3107
21.5514463,3182
21.56231274,3098
21.57317918,3164
21.58404562,3154
21.59491206,3168
21.6057785,3036
21.61664494,3128
21.62751138,3127
21.63837782,3108
21.64924426,3087
21.6601107,2988
21.67097714,3116
21.68184358,3059
21.69271002,3081
21.70357646,3173
21.7144429,3158
21.72530934,3121
21.73617578,3159
21.74704222,3142
21.75790866,3091
21.7687751,3082
21.77964154,3077
21.79050798,3148
21.80137442,3172
21.81224086,3060
21.8231073,3238
21.83397374,3186
21.84484018,3148
21.85570662,3173
21.86657306,3043
21.8774395,3097
21.88830594,3083
21.89917238,3068
21.91003882,3264
21.92090526,3176
21.9317717,3048
21.94263814,3204
21.95350458,3024
21.96437102,3115
21.97523746,3274
21.9861039,3041
21.99697034,3179
22.00783678,3210
22.01870322,3122
22.02956966,3187
22.0404361,3125
22.05130254,3179
22.06216898,3112
22.07303542,3156
22.08390186,3041
22.0947683,3156
22.10563474,3259
22.11650118,3213
22.12736762,3252
22.13823406,3160
22.1491005,3195
22.15996694,3203
22.17083338,3083
22.18169982,3174
22.19256626,3120
22.2034327,3227
22.21429914,3117
22.22516558,3246
22.23603202,3242
22.24689846,3209
22.2577649,3229
22.26863134,3251
22.27949778,3277
22.29036422,3312
22.30123066,3296
22.3120971,3171
22.32296354,3174
22.33382998,3241
22.34469642,3246
22.35556286,3293
22.3664293,3276
22.37729574,3339
22.38816218,3369
22.39902862,3362
22.40989506,3312
22.4207615,3413
22.43162794,3308
22.44249438,3355
22.45336082,3437
22.46422726,3427
22.4750937,3289
22.48596014,3354
22.49682658,3480
22.50769302,3471
22.51855946,3454
22.5294259,3491
22.54029234,3433
22.55115878,3478
22.56202522,3460
22.57289166,3478
22.5837581,3419
22.59462454,3528
22.60549098,3532
22.61635742,3575
22.62722386,3486
22.6380903,3515
22.64895674,3457
22.65982318,3549
22.67068962,3465
22.68155606,3480
22.6924225,3538
22.70328894,3457
22.71415538,3487
22.72502182,3476
22.73588826,3510
22.7467547,3566
22.75762114,3566
22.76848758,3498
22.77935402,3586
22.79022046,3612
22.8010869,3520
22.81195334,3524
22.82281978,3517
22.83368622,3555
22.84455266,3507
22.8554191,3575
22.86628554,3479
22.87715198,3508
22.88801842,3579
22.89888486,3499
22.9097513,3543
22.92061774,3587
22.93148418,3528
22.94235062,3552
22.95321706,3339
22.9640835,3563
22.97494994,3520
22.98581638,3637
22.99668282,3551
23.00754926,3500
23.0184157,3600
23.02928214,3555
23.04014858,3404
23.05101502,3503
23.06188146,3594
23.0727479,3424
23.08361434,3467
23.09448078,3473
23.10534722,3543
23.11621366,3520
23.1270801,3480
23.13794654,3569
23.14881298,3453
23.15967942,3479
23.17054586,3379
23.1814123,3401
23.19227874,3458
23.20314518,3456
23.21401162,3466
23.22487806,3459
23.2357445,3471
23.24661094,3393
23.25747738,3525
23.26834382,3457
23.27921026,3505
23.2900767,3427
23.30094314,3424
23.31180958,3533
23.32267602,3407
23.33354246,3474
23.3444089,3463
23.35527534,3378
23.36614178,3582
23.37700822,3425
23.38787466,3442
23.3987411,3379
23.40960754,3401
23.42047398,3410
23.43134042,3634
23.44220686,3491
23.4530733,3487
23.46393974,3518
23.47480618,3403
23.48567262,3474
23.49653906,3382
23.5074055,3549
23.51827194,3491
23.52913838,3528
23.54000482,3458
23.55087126,3432
23.5617377,3463
23.57260414,3494
23.58347058,3413
23.59433702,3454
23.60520346,3495
23.6160699,3486
23.62693634,3498
23.63780278,3468
23.64866922,3549
23.65953566,3491
23.6704021,3378
23.68126854,3541
23.69213498,3410
23.70300142,3559
23.71386786,3563
23.7247343,3558
23.73560074,3518
23.74646718,3417
23.75733362,3611
23.76820006,3580
23.7790665,3549
23.78993294,3572
23.80079938,3592
23.81166582,3602
23.82253226,3545
23.8333987,3731
23.84426514,3636
23.85513158,3727
23.86599802,3772
23.87686446,3772
23.8877309,3709
23.89859734,3669
23.90946378,3734
23.92033022,3801
23.93119666,3652
23.9420631,3676
23.95292954,3598
23.96379598,3519
23.97466242,3527
23.98552886,3407
23.9963953,3485
24.00726174,3439
24.01812818,3448
24.02899462,3375
24.03986106,3436
24.0507275,3353
24.06159394,3461
24.07246038,3430
24.08332682,3334
24.09419326,3474
24.1050597,3486
24.11592614,3506
24.12679258,3438
24.13765902,3328
24.14852546,3420
24.1593919,3341
24.17025834,3330
24.18112478,3479
24.19199122,3324
24.20285766,3418
24.2137241,3301
24.22459054,3493
24.23545698,3295
24.24632342,3289
24.25718986,3405
24.2680563,3328
24.27892274,3281
24.28978918,3385
24.30065562,3284
24.31152206,3390
24.3223885,3287
24.33325494,3364
24.34412138,3417
24.35498782,3337
24.36585426,3374
24.3767207,3330
24.38758714,3438
24.39845358,3409
24.40932002,3304
24.42018646,3378
24.4310529,3332
24.44191934,3318
24.45278578,3479
24.46365222,3279
24.47451866,3512
24.4853851,3416
24.49625154,3348
24.50711798,3356
24.51798442,3429
24.52885086,3368
24.5397173,3246
24.55058374,3426
24.56145018,3260
24.57231662,3456
24.58318306,3275
24.5940495,3494
24.60491594,3278
24.61578238,3341
24.62664882,3415
24.63751526,3387
24.6483817,3323
24.65924814,3289
24.67011458,3352
24.68098102,3283
24.69184746,3318
24.7027139,3453
24.71358034,3434
24.72444678,3451
24.73531322,3382
24.74617966,3340
24.7570461,3397
24.76791254,3448
24.77877898,3346
24.78964542,3355
24.80051186,3360
24.8113783,3351
24.82224474,3405
24.83311118,3287
24.84397762,3453
24.85484406,3280
24.8657105,3498
24.87657694,3521
24.88744338,3445
24.89830982,3401
24.90917626,3473
24.9200427,3464
24.93090914,3425
24.94177558,3450
24.95264202,3448
24.96350846,3544
24.9743749,3513
24.98524134,3482
24.99610778,3439
25.00697422,3545
25.01784066,3368
25.0287071,3451
25.03957354,3408
25.05043998,3498
25.06130642,3455
25.07217286,3563
25.0830393,3522
25.09390574,3550
25.10477218,3520
25.11563862,3443
25.12650506,3440
25.1373715,3413
25.14823794,3471
25.15910438,3423
25.16997082,3508
25.18083726,3465
25.1917037,3439
25.20257014,3509
25.21343658,3547
25.22430302,3487
25.23516946,3554
25.2460359,3481
25.25690234,3520
25.26776878,3517
25.27863522,3348
25.28950166,3521
25.3003681,3545
25.31123454,3443
25.32210098,3505
25.33296742,3386
25.34383386,3490
25.3547003,3357
25.36556674,3506
25.37643318,3444
25.38729962,3320
25.39816606,3414
25.4090325,3445
25.41989894,3268
25.43076538,3450
25.44163182,3379
25.45249826,3321
25.4633647,3403
25.47423114,3329
25.48509758,3407
25.49596402,3495
25.50683046,3302
25.5176969,3241
25.52856334,3351
25.53942978,3429
25.55029622,3260
25.56116266,3400
25.5720291,3399
25.58289554,3258
25.59376198,3421
25.60462842,3330
25.61549486,3386
25.6263613,3324
25.63722774,3352
25.64809418,3357
25.65896062,3329
25.66982706,3420
25.6806935,3287
25.69155994,3432
25.70242638,3420
25.71329282,3295
25.72415926,3434
25.7350257,3342
25.74589214,3354
25.75675858,3437
25.76762502,3287
25.77849146,3409
25.7893579,3366
25.80022434,3308
25.81109078,3277
25.82195722,3330
25.83282366,3273
25.8436901,3344
25.85455654,3410
25.86542298,3318
25.87628942,3324
25.88715586,3496
25.8980223,3391
25.90888874,3323
25.91975518,3446
25.93062162,3238
25.94148806,3346
25.9523545,3317
25.96322094,3275
25.97408738,3292
25.98495382,3316
25.99582026,3352
26.0066867,3357
26.01755314,3389
26.02841958,3455
26.03928602,3267
26.05015246,3315
26.0610189,3435
26.07188534,3210
26.08275178,3368
26.09361822,3284
26.10448466,3301
26.1153511,3329
26.12621754,3296
26.13708398,3425
26.14795042,3390
26.15881686,3262
26.1696833,3413
26.18054974,3343
26.19141618,3325
26.20228262,3269
26.21314906,3321
26.2240155,3285
26.23488194,3377
26.24574838,3340
26.25661482,3298
26.26748126,3398
26.2783477,3316
26.28921414,3301
26.30008058,3355
26.31094702,3229
26.32181346,3392
26.3326799,3294
26.34354634,3378
26.35441278,3420
26.36527922,3376
26.37614566,3271
26.3870121,3321
26.39787854,3354
26.40874498,3351
26.41961142,3329
26.43047786,3315
26.4413443,3362
26.45221074,3288
26.46307718,3316
26.47394362,3203
26.48481006,3356
26.4956765,3351
26.50654294,3353
26.51740938,3329
26.52827582,3403
26.53914226,3401
26.5500087,3317
26.56087514,3423
26.57174158,3289
26.58260802,3345
26.59347446,3345
26.6043409,3401
26.61520734,3239
26.62607378,3445
26.63694022,3343
26.64780666,3340
26.6586731,3414
26.66953954,3273
26.68040598,3341
26.69127242,3304
26.70213886,3331
26.7130053,3382
26.72387174,3308
26.73473818,3253
26.74560462,3243
26.75647106,3443
26.7673375,3345
26.77820394,3323
26.78907038,3333
26.79993682,3432
26.81080326,3312
26.8216697,3385
26.83253614,3274
26.84340258,3386
26.85426902,3282
26.86513546,3341
26.8760019,3271
26.88686834,3208
26.89773478,3364
26.90860122,3409
26.91946766,3426
26.9303341,3422
26.94120054,3395
26.95206698,3328
26.96293342,3302
26.97379986,3402
26.9846663,3319
26.99553274,3429
27.00639918,3337
27.01726562,3331
27.02813206,3389
27.0389985,3350
27.04986494,3408
27.06073138,3305
27.07159782,3330
27.08246426,3352
27.0933307,3395
27.10419714,3422
27.11506358,3432
27.12593002,3298
27.13679646,3459
27.1476629,3418
27.15852934,3361
27.16939578,3474
27.18026222,3399
27.19112866,3367
27.2019951,3466
27.21286154,3397
27.22372798,3414
27.23459442,3355
27.24546086,3380
27.2563273,3345
27.26719374,3345
27.27806018,3447
27.28892662,3420
27.29979306,3417
27.3106595,3390
27.32152594,3345
27.33239238,3395
27.34325882,3422
27.35412526,3416
27.3649917,3367
27.37585814,3339
27.38672458,3307
27.39759102,3268
27.40845746,3296
27.4193239,3411
27.43019034,3344
27.44105678,3315
27.45192322,3431
27.46278966,3504
27.4736561,3415
27.48452254,3468
27.49538898,3408
27.50625542,3271
27.51712186,3374
27.5279883,3451
27.53885474,3262
27.54972118,3445
27.56058762,3386
27.57145406,3419
27.5823205,3296
27.59318694,3363
27.60405338,3403
27.61491982,3347
27.62578626,3345
27.6366527,3337
27.64751914,3287
27.65838558,3379
27.66925202,3494
27.68011846,3357
27.6909849,3348
27.70185134,3409
27.71271778,3341
27.72358422,3413
27.73445066,3368
27.7453171,3447
27.75618354,3393
27.76704998,3268
27.77791642,3388
27.78878286,3423
27.7996493,3360
27.81051574,3432
27.82138218,3288
27.83224862,3293
27.84311506,3347
27.8539815,3499
27.86484794,3278
27.87571438,3326
27.88658082,3389
27.89744726,3449
27.9083137,3304
27.91918014,3391
27.93004658,3296
27.94091302,3282
27.95177946,3354
27.9626459,3393
27.97351234,3323
27.98437878,3363
27.99524522,3255
28.00611166,3340
28.0169781,3374
28.02784454,3354
28.03871098,3357
28.04957742,3365
28.06044386,3367
28.0713103,3402
28.08217674,3352
28.09304318,3342
28.10390962,3391
28.11477606,3336
28.1256425,3408
28.13650894,3246
28.14737538,3357
28.15824182,3321
28.16910826,3360
28.1799747,3272
28.19084114,3418
28.20170758,3388
28.21257402,3321
28.22344046,3338
28.2343069,3357
28.24517334,3363
28.25603978,3392
28.26690622,3309
28.27777266,3369
28.2886391,3329
28.29950554,3429
28.31037198,3326
28.32123842,3321
28.33210486,3397
28.3429713,3354
28.35383774,3258
28.36470418,3255
28.37557062,3430
28.38643706,3348
28.3973035,3396
28.40816994,3449
28.41903638,3359
28.42990282,3341
28.44076926,3398
28.4516357,3447
28.46250214,3331
28.47336858,3336
28.48423502,3315
28.49510146,3328
28.5059679,3447
28.51683434,3349
28.52770078,3437
28.53856722,3438
28.54943366,3379
28.5603001,3332
28.57116654,3349
28.58203298,3312
28.59289942,3370
28.60376586,3307
28.6146323,3352
28.62549874,3462
28.63636518,3417
28.64723162,3354
28.65809806,3347
28.6689645,3367
28.67983094,3379
28.69069738,3372
28.70156382,3467
28.71243026,3491
28.7232967,3408
28.73416314,3435
28.74502958,3339
28.75589602,3478
28.76676246,3487
28.7776289,3441
28.78849534,3463
28.79936178,3310
28.81022822,3526
28.82109466,3542
28.8319611,3574
28.84282754,3569
28.85369398,3422
28.86456042,3589
28.87542686,3508
28.8862933,3536
28.89715974,3483
28.90802618,3659
28.91889262,3571
28.92975906,3682
28.9406255,3697
28.95149194,3775
28.96235838,3653
28.97322482,3627
28.98409126,3800
28.9949577,3592
29.00582414,3715
29.01669058,3842
29.02755702,3761
29.03842346,3717
29.0492899,3803
29.06015634,3826
29.07102278,3933
29.08188922,3837
29.09275566,3876
29.1036221,3864
29.11448854,3945
29.12535498,3769
29.13622142,3875
29.14708786,3773
29.1579543,3854
29.16882074,3748
29.17968718,3782
29.19055362,3742
29.20142006,3738
29.2122865,3854
29.22315294,3826
29.23401938,3637
29.24488582,3651
29.25575226,3816
29.2666187,3628
29.27748514,3710
29.28835158,3560
29.29921802,3681
29.31008446,3574
29.3209509,3498
29.33181734,3567
29.34268378,3700
29.35355022,3546
29.36441666,3662
29.3752831,3572
29.38614954,3682
29.39701598,3661
29.40788242,3677
29.41874886,3579
29.4296153,3669
29.44048174,3693
29.45134818,3805
29.46221462,3645
29.47308106,3647
29.4839475,3629
29.49481394,3769
29.50568038,3747
29.51654682,3692
29.52741326,3781
29.5382797,3790
29.54914614,3707
29.56001258,3695
29.57087902,3639
29.58174546,3681
29.5926119,3771
29.60347834,3615
29.61434478,3689
29.62521122,3616
29.63607766,3658
29.6469441,3764
29.65781054,3652
29.66867698,3710
29.67954342,3685
29.69040986,3719
29.7012763,3774
29.71214274,3789
29.72300918,3734
29.73387562,3757
29.74474206,3781
29.7556085,3757
29.76647494,3919
29.77734138,3623
29.78820782,3783
29.79907426,3781
29.8099407,3707
29.82080714,3753
29.83167358,3827
29.84254002,3822
29.85340646,3847
29.8642729,3917
29.87513934,3852
29.88600578,3803
29.89687222,3960
29.90773866,3971
29.9186051,3951
29.92947154,4046
29.94033798,3889
29.95120442,3980
29.96207086,3994
29.9729373,4015
29.98380374,4005
29.99467018,4039
