"Angle","Counts"
3.00243322,28205
3.01329966,27588
3.0241661,27584
3.03503254,27628
3.04589898,27135
3.05676542,26697
3.06763186,26702
3.0784983,26622
3.08936474,26206
3.10023118,26102
3.11109762,25538
3.12196406,25535
3.1328305,25494
3.14369694,25334
3.15456338,24934
3.16542982,24629
3.17629626,24693
3.1871627,24223
3.19802914,24119
3.20889558,23793
3.21976202,23607
3.23062846,23649
3.2414949,23133
3.25236134,22908
3.26322778,22879
3.27409422,22798
3.28496066,22359
3.2958271,21803
3.30669354,22104
3.31755998,21804
3.32842642,21987
3.33929286,21558
3.3501593,21389
3.36102574,21346
3.37189218,20839
3.38275862,20950
3.39362506,20680
3.4044915,20647
3.41535794,20422
3.42622438,20522
3.43709082,19955
3.44795726,20023
3.4588237,19795
3.46969014,19613
3.48055658,19706
3.49142302,19176
3.50228946,18863
3.5131559,19083
3.52402234,18571
3.53488878,18935
3.54575522,18892
3.55662166,18325
3.5674881,18718
3.57835454,18269
3.58922098,17815
3.60008742,17917
3.61095386,17883
3.6218203,17847
3.63268674,17407
3.64355318,17752
3.65441962,17369
3.66528606,17391
3.6761525,17151
3.68701894,17017
3.69788538,16978
3.70875182,17036
3.71961826,16760
3.7304847,16511
3.74135114,16554
3.75221758,16537
3.76308402,16428
3.77395046,16146
3.7848169,16092
3.79568334,15866
3.80654978,16103
3.81741622,15791
3.82828266,15742
3.8391491,15459
3.85001554,15430
3.86088198,15425
3.87174842,15232
3.88261486,15227
3.8934813,15244
3.90434774,15080
3.91521418,14841
3.92608062,14885
3.93694706,14848
3.9478135,14645
3.95867994,14602
3.96954638,14544
3.98041282,14213
3.99127926,14380
4.0021457,14191
4.01301214,14020
4.02387858,14367
4.03474502,14219
4.04561146,13866
4.0564779,13951
4.06734434,13803
4.07821078,13825
4.08907722,13414
4.09994366,13232
4.1108101,13304
4.12167654,13398
4.13254298,13226
4.14340942,13388
4.15427586,13502
4.1651423,13066
4.17600874,12907
4.18687518,12842
4.19774162,12846
4.20860806,12900
4.2194745,12709
4.23034094,12696
4.24120738,12829
4.25207382,12609
4.26294026,12530
4.2738067,12561
4.28467314,12400
4.29553958,12401
4.30640602,12163
4.31727246,12112
4.3281389,11999
4.33900534,12076
4.34987178,12242
4.36073822,12125
4.37160466,11985
4.3824711,12016
4.39333754,11750
4.40420398,11897
4.41507042,11813
4.42593686,11719
4.4368033,11619
4.44766974,11680
4.45853618,11622
4.46940262,11696
4.48026906,11352
4.4911355,11380
4.50200194,11425
4.51286838,11336
4.52373482,11413
4.53460126,11294
4.5454677,11219
4.55633414,11143
4.56720058,11201
4.57806702,11178
4.58893346,11080
4.5997999,10971
4.61066634,10799
4.62153278,10800
4.63239922,10724
4.64326566,10987
4.6541321,10829
4.66499854,10726
4.67586498,10634
4.68673142,10825
4.69759786,10664
4.7084643,10600
4.71933074,10471
4.73019718,10425
4.74106362,10612
4.75193006,10322
4.7627965,10360
4.77366294,10243
4.78452938,10557
4.79539582,10383
4.80626226,10239
4.8171287,10389
4.82799514,10098
4.83886158,10244
4.84972802,10115
4.86059446,10086
4.8714609,10153
4.88232734,9828
4.89319378,9872
4.90406022,9939
4.91492666,9826
4.9257931,10025
4.93665954,9850
4.94752598,9762
4.95839242,9887
4.96925886,9627
4.9801253,9806
4.99099174,9732
5.00185818,9700
5.01272462,9720
5.02359106,9586
5.0344575,9532
5.04532394,9622
5.05619038,9529
5.06705682,9562
5.07792326,9456
5.0887897,9353
5.09965614,9414
5.11052258,9389
5.12138902,9244
5.13225546,9253
5.1431219,9389
5.15398834,9360
5.16485478,9241
5.17572122,9026
5.18658766,9081
5.1974541,9185
5.20832054,9349
5.21918698,9304
5.23005342,9081
5.24091986,9182
5.2517863,9021
5.26265274,9028
5.27351918,8919
5.28438562,8954
5.29525206,9040
5.3061185,8994
5.31698494,8968
5.32785138,8934
5.33871782,8809
5.34958426,9027
5.3604507,8769
5.37131714,8839
5.38218358,8887
5.39305002,8875
5.40391646,8773
5.4147829,8705
5.42564934,8814
5.43651578,8617
5.44738222,8635
5.45824866,8497
5.4691151,8493
5.47998154,8532
5.49084798,8558
5.50171442,8469
5.51258086,8743
5.5234473,8688
5.53431374,8401
5.54518018,8581
5.55604662,8531
5.56691306,8333
5.5777795,8510
5.58864594,8510
5.59951238,8463
5.61037882,8205
5.62124526,8510
5.6321117,8245
5.64297814,8304
5.65384458,8404
5.66471102,8186
5.67557746,8507
5.6864439,8327
5.69731034,8342
5.70817678,8188
5.71904322,8323
5.72990966,8264
5.7407761,8210
5.75164254,8177
5.76250898,8231
5.77337542,8136
5.78424186,8079
5.7951083,8251
5.80597474,8145
5.81684118,8069
5.82770762,8247
5.83857406,8212
5.8494405,8113
5.86030694,7967
5.87117338,8157
5.88203982,7952
5.89290626,7911
5.9037727,8170
5.91463914,8059
5.92550558,8071
5.93637202,8031
5.94723846,8216
5.9581049,8018
5.96897134,8108
5.97983778,7827
5.99070422,7981
6.00157066,7872
6.0124371,7745
6.02330354,7901
6.03416998,7937
6.04503642,7877
6.05590286,7788
6.0667693,7996
6.07763574,7830
6.08850218,7844
6.09936862,7860
6.11023506,7868
6.1211015,7781
6.13196794,7915
6.14283438,7858
6.15370082,7706
6.16456726,7874
6.1754337,7871
6.18630014,7864
6.19716658,7892
6.20803302,7840
6.21889946,7813
6.2297659,7592
6.24063234,7755
6.25149878,7764
6.26236522,7824
6.27323166,7894
6.2840981,7713
6.29496454,7654
6.30583098,7915
6.31669742,7623
6.32756386,7789
6.3384303,7673
6.34929674,7577
6.36016318,7479
6.37102962,7692
6.38189606,7620
6.3927625,7701
6.40362894,7630
6.41449538,7655
6.42536182,7578
6.43622826,7708
6.4470947,7545
6.45796114,7717
6.46882758,7476
6.47969402,7524
6.49056046,7543
6.5014269,7538
6.51229334,7549
6.52315978,7497
6.53402622,7489
6.54489266,7528
6.5557591,7445
6.56662554,7417
6.57749198,7555
6.58835842,7577
6.59922486,7277
6.6100913,7449
6.62095774,7591
6.63182418,7457
6.64269062,7388
6.65355706,7285
6.6644235,7348
6.67528994,7348
6.68615638,7382
6.69702282,7332
6.70788926,7265
6.7187557,7421
6.72962214,7398
6.74048858,7492
6.75135502,7273
6.76222146,7215
6.7730879,7476
6.78395434,7212
6.79482078,7277
6.80568722,7270
6.81655366,7271
6.8274201,7281
6.83828654,7303
6.84915298,7391
6.86001942,7323
6.87088586,7314
6.8817523,7254
6.89261874,7162
6.90348518,7299
6.91435162,7266
6.92521806,7237
6.9360845,7331
6.94695094,7309
6.95781738,7220
6.96868382,7278
6.97955026,7120
6.9904167,7245
7.00128314,7119
7.01214958,7285
7.02301602,7086
7.03388246,7049
7.0447489,7115
7.05561534,7092
7.06648178,7208
7.07734822,7079
7.08821466,7266
7.0990811,7155
7.10994754,7076
7.12081398,6999
7.13168042,7118
7.14254686,7094
7.1534133,7095
7.16427974,7103
7.17514618,7145
7.18601262,7047
7.19687906,7014
7.2077455,6870
7.21861194,7071
7.22947838,7007
7.24034482,7134
7.25121126,7026
7.2620777,6911
7.27294414,6976
7.28381058,6822
7.29467702,7032
7.30554346,6985
7.3164099,7076
7.32727634,6987
7.33814278,7050
7.34900922,7071
7.35987566,6877
7.3707421,6948
7.38160854,6993
7.39247498,7215
7.40334142,6914
7.41420786,6924
7.4250743,7005
7.43594074,7002
7.44680718,6927
7.45767362,7104
7.46854006,7021
7.4794065,6911
7.49027294,6826
7.50113938,6970
7.51200582,6914
7.52287226,6984
7.5337387,6974
7.54460514,6914
7.55547158,6926
7.56633802,6866
7.57720446,6988
7.5880709,6894
7.59893734,7078
7.60980378,7015
7.62067022,7022
7.63153666,6705
7.6424031,6728
7.65326954,7013
7.66413598,6855
7.67500242,6943
7.68586886,6855
7.6967353,6856
7.70760174,6840
7.71846818,6782
7.72933462,6922
7.74020106,6807
7.7510675,6884
7.76193394,6722
7.77280038,7045
7.78366682,6670
7.79453326,6794
7.8053997,6690
7.81626614,6883
7.82713258,6918
7.83799902,6761
7.84886546,6704
7.8597319,6873
7.87059834,6736
7.88146478,6787
7.89233122,6712
7.90319766,6768
7.9140641,6704
7.92493054,6818
7.93579698,7009
7.94666342,6786
7.95752986,6692
7.9683963,6984
7.97926274,6878
7.99012918,6847
8.00099562,6750
8.01186206,6847
8.0227285,6851
8.03359494,6790
8.04446138,6840
8.05532782,6769
8.06619426,6845
8.0770607,6816
8.08792714,6873
8.09879358,6730
8.10966002,6861
8.12052646,6716
8.1313929,6858
8.14225934,6703
8.15312578,6876
8.16399222,6893
8.17485866,6674
8.1857251,6768
8.19659154,6889
8.20745798,6852
8.21832442,6791
8.22919086,6802
8.2400573,6636
8.25092374,6850
8.26179018,6786
8.27265662,6808
8.28352306,6686
8.2943895,6855
8.30525594,6617
8.31612238,6818
8.32698882,6763
8.33785526,6776
8.3487217,6777
8.35958814,6855
8.37045458,6784
8.38132102,6913
8.39218746,6697
8.4030539,6828
8.41392034,6728
8.42478678,6713
8.43565322,6643
8.44651966,6839
8.4573861,6811
8.46825254,6869
8.47911898,6903
8.48998542,6893
8.50085186,6634
8.5117183,6823
8.52258474,6872
8.53345118,6743
8.54431762,6803
8.55518406,6889
8.5660505,6764
8.57691694,6831
8.58778338,6739
8.59864982,6834
8.60951626,6922
8.6203827,6666
8.63124914,6793
8.64211558,6820
8.65298202,6765
8.66384846,6747
8.6747149,6888
8.68558134,6911
8.69644778,6887
8.70731422,6834
8.71818066,6705
8.7290471,6815
8.73991354,6938
8.75077998,6863
8.76164642,6832
8.77251286,6704
8.7833793,6773
8.79424574,6741
8.80511218,6802
8.81597862,6712
8.82684506,6849
8.8377115,6757
8.84857794,6814
8.85944438,6928
8.87031082,6852
8.88117726,6980
8.8920437,6823
8.90291014,6983
8.91377658,6861
8.92464302,6849
8.93550946,6834
8.9463759,6863
8.95724234,6995
8.96810878,6721
8.97897522,7051
8.98984166,6834
9.0007081,6982
9.01157454,6810
9.02244098,6969
9.03330742,6972
9.04417386,6861
9.0550403,7011
9.06590674,6898
9.07677318,6939
9.08763962,6997
9.09850606,6982
9.1093725,7035
9.12023894,6914
9.13110538,6995
9.14197182,7043
9.15283826,7127
9.1637047,7074
9.17457114,6882
9.18543758,6950
9.19630402,6975
9.20717046,7064
9.2180369,7000
9.22890334,6988
9.23976978,7012
9.25063622,7094
9.26150266,7009
9.2723691,7278
9.28323554,7069
9.29410198,7137
9.30496842,7109
9.31583486,7104
9.3267013,7109
9.33756774,7212
9.34843418,7183
9.35930062,7163
9.37016706,7128
9.3810335,7055
9.39189994,7319
9.40276638,7260
9.41363282,7116
9.42449926,7220
9.4353657,7213
9.44623214,7184
9.45709858,7364
9.46796502,7227
9.47883146,7242
9.4896979,7291
9.50056434,7477
9.51143078,7126
9.52229722,7171
9.53316366,7289
9.5440301,7367
9.55489654,7363
9.56576298,7378
9.57662942,7353
9.58749586,7375
9.5983623,7336
9.60922874,7277
9.62009518,7248
9.63096162,7273
9.64182806,7170
9.6526945,7448
9.66356094,7380
9.67442738,7387
9.68529382,7357
9.69616026,7377
9.7070267,7405
9.71789314,7329
9.72875958,7369
9.73962602,7543
9.75049246,7469
9.7613589,7756
9.77222534,7607
9.78309178,7469
9.79395822,7548
9.80482466,7585
9.8156911,7673
9.82655754,7562
9.83742398,7551
9.84829042,7579
9.85915686,7573
9.8700233,7648
9.88088974,7407
9.89175618,7714
9.90262262,7628
9.91348906,7693
9.9243555,7494
9.93522194,7641
9.94608838,7688
9.95695482,7597
9.96782126,7519
9.9786877,7476
9.98955414,7503
10.00042058,7523
10.01128702,7476
10.02215346,7509
10.0330199,7454
10.04388634,7460
10.05475278,7408
10.06561922,7428
10.07648566,7423
10.0873521,7617
10.09821854,7345
10.10908498,7272
10.11995142,7335
10.13081786,7490
10.1416843,7329
10.15255074,7294
10.16341718,7210
10.17428362,7330
10.18515006,7226
10.1960165,7115
10.20688294,7316
10.21774938,7165
10.22861582,7248
10.23948226,7072
10.2503487,6973
10.26121514,6914
10.27208158,7019
10.28294802,6978
10.29381446,6925
10.3046809,6940
10.31554734,6957
10.32641378,6728
10.33728022,6805
10.34814666,6909
10.3590131,6866
10.36987954,6908
10.38074598,6847
10.39161242,6897
10.40247886,6880
10.4133453,6740
10.42421174,6769
10.43507818,6721
10.44594462,6774
10.45681106,6757
10.4676775,6739
10.47854394,6675
10.48941038,6738
10.50027682,6639
10.51114326,6524
10.5220097,6739
10.53287614,6595
10.54374258,6796
10.55460902,6647
10.56547546,6497
10.5763419,6527
10.58720834,6418
10.59807478,6571
10.60894122,6617
10.61980766,6483
10.6306741,6631
10.64154054,6463
10.65240698,6478
10.66327342,6527
10.67413986,6529
10.6850063,6341
10.69587274,6542
10.70673918,6452
10.71760562,6266
10.72847206,6343
10.7393385,6484
10.75020494,6408
10.76107138,6184
10.77193782,6427
10.78280426,6411
10.7936707,6160
10.80453714,6269
10.81540358,6352
10.82627002,6216
10.83713646,6205
10.8480029,6067
10.85886934,6221
10.86973578,6241
10.88060222,6105
10.89146866,6190
10.9023351,6107
10.91320154,6210
10.92406798,6266
10.93493442,6213
10.94580086,5989
10.9566673,6073
10.96753374,6122
10.97840018,6120
10.98926662,6100
11.00013306,5977
11.0109995,6103
11.02186594,6016
11.03273238,6050
11.04359882,6019
11.05446526,6034
11.0653317,6107
11.07619814,5915
11.08706458,6085
11.09793102,5965
11.10879746,5910
11.1196639,5956
11.13053034,5936
11.14139678,5916
11.15226322,5900
11.16312966,5912
11.1739961,5805
11.18486254,5866
11.19572898,5823
11.20659542,5810
11.21746186,5767
11.2283283,5845
11.23919474,5648
11.25006118,5772
11.26092762,5690
11.27179406,5831
11.2826605,5959
11.29352694,5839
11.30439338,5767
11.31525982,5808
11.32612626,5858
11.3369927,5748
11.34785914,5788
11.35872558,5767
11.36959202,5836
11.38045846,5786
11.3913249,5697
11.40219134,5622
11.41305778,5839
11.42392422,5748
11.43479066,5720
11.4456571,5818
11.45652354,5671
11.46738998,5755
11.47825642,5773
11.48912286,5580
11.4999893,5688
11.51085574,5660
11.52172218,5645
11.53258862,5646
11.54345506,5640
11.5543215,5568
11.56518794,5555
11.57605438,5568
11.58692082,5624
11.59778726,5527
11.6086537,5555
11.61952014,5482
11.63038658,5393
11.64125302,5522
11.65211946,5621
11.6629859,5579
11.67385234,5454
11.68471878,5666
11.69558522,5421
11.70645166,5558
11.7173181,5529
11.72818454,5640
11.73905098,5490
11.74991742,5568
11.76078386,5487
11.7716503,5636
11.78251674,5385
11.79338318,5533
11.80424962,5334
11.81511606,5506
11.8259825,5438
11.83684894,5453
11.84771538,5512
11.85858182,5537
11.86944826,5591
11.8803147,5416
11.89118114,5383
11.90204758,5372
11.91291402,5406
11.92378046,5567
11.9346469,5599
11.94551334,5472
11.95637978,5381
11.96724622,5416
11.97811266,5519
11.9889791,5488
11.99984554,5525
12.01071198,5357
12.02157842,5391
12.03244486,5516
12.0433113,5495
12.05417774,5469
12.06504418,5498
12.07591062,5438
12.08677706,5378
12.0976435,5402
12.10850994,5597
12.11937638,5421
12.13024282,5402
12.14110926,5492
12.1519757,5433
12.16284214,5474
12.17370858,5633
12.18457502,5480
12.19544146,5526
12.2063079,5485
12.21717434,5485
12.22804078,5712
12.23890722,5409
12.24977366,5547
12.2606401,5529
12.27150654,5668
12.28237298,5456
12.29323942,5508
12.30410586,5695
12.3149723,5525
12.32583874,5667
12.33670518,5655
12.34757162,5625
12.35843806,5538
12.3693045,5625
12.38017094,5426
12.39103738,5428
12.40190382,5552
12.41277026,5557
12.4236367,5449
12.43450314,5575
12.44536958,5582
12.45623602,5587
12.46710246,5580
12.4779689,5544
12.48883534,5499
12.49970178,5680
12.51056822,5627
12.52143466,5633
12.5323011,5607
12.54316754,5710
12.55403398,5617
12.56490042,5585
12.57576686,5694
12.5866333,5545
12.59749974,5609
12.60836618,5698
12.61923262,5689
12.63009906,5746
12.6409655,5730
12.65183194,5747
12.66269838,5721
12.67356482,5714
12.68443126,5808
12.6952977,5724
12.70616414,5933
12.71703058,5824
12.72789702,5758
12.73876346,5795
12.7496299,5813
12.76049634,5812
12.77136278,5743
12.78222922,5808
12.79309566,5720
12.8039621,5848
12.81482854,5788
12.82569498,5876
12.83656142,5883
12.84742786,5949
12.8582943,6006
12.86916074,5943
12.88002718,5912
12.89089362,5947
12.90176006,6208
12.9126265,5990
12.92349294,6124
12.93435938,6114
12.94522582,5827
12.95609226,5991
12.9669587,6097
12.97782514,6123
12.98869158,6004
12.99955802,6128
13.01042446,6265
13.0212909,6291
13.03215734,6372
13.04302378,6320
13.05389022,6386
13.06475666,6331
13.0756231,6261
13.08648954,6531
13.09735598,6357
13.10822242,6475
13.11908886,6502
13.1299553,6415
13.14082174,6596
13.15168818,6631
13.16255462,6593
13.17342106,6774
13.1842875,6528
13.19515394,6684
13.20602038,6710
13.21688682,6885
13.22775326,6759
13.2386197,6901
13.24948614,7086
13.26035258,6935
13.27121902,7101
13.28208546,6942
13.2929519,7172
13.30381834,7129
13.31468478,7215
13.32555122,7130
13.33641766,7335
13.3472841,7296
13.35815054,7472
13.36901698,7536
13.37988342,7637
13.39074986,7820
13.4016163,7775
13.41248274,8041
13.42334918,7715
13.43421562,7953
13.44508206,8142
13.4559485,8299
13.46681494,8390
13.47768138,8355
13.48854782,8342
13.49941426,8667
13.5102807,8744
13.52114714,8657
13.53201358,9086
13.54288002,8797
13.55374646,9158
13.5646129,9006
13.57547934,9346
13.58634578,9409
13.59721222,9657
13.60807866,9816
13.6189451,10007
13.62981154,10290
13.64067798,10303
13.65154442,10375
13.66241086,10615
13.6732773,10700
13.68414374,11159
13.69501018,11244
13.70587662,11396
13.71674306,11498
13.7276095,11728
13.73847594,12012
13.74934238,12145
13.76020882,12478
13.77107526,12603
13.7819417,13095
13.79280814,13040
13.80367458,13603
13.81454102,13970
13.82540746,14134
13.8362739,14481
13.84714034,14608
13.85800678,14920
13.86887322,15130
13.87973966,15475
13.8906061,15547
13.90147254,16144
13.91233898,16389
13.92320542,16418
13.93407186,16547
13.9449383,16874
13.95580474,17184
13.96667118,17256
13.97753762,17301
13.98840406,17344
13.9992705,17383
14.01013694,17376
14.02100338,17482
14.03186982,17231
14.04273626,17309
14.0536027,17227
14.06446914,16948
14.07533558,17169
14.08620202,17020
14.09706846,16357
14.1079349,16067
14.11880134,16065
14.12966778,15582
14.14053422,15376
14.15140066,15364
14.1622671,14743
14.17313354,14522
14.18399998,14251
14.19486642,13677
14.20573286,13122
14.2165993,12798
14.22746574,12362
14.23833218,12077
14.24919862,11435
14.26006506,11003
14.2709315,10849
14.28179794,10201
14.29266438,10049
14.30353082,9606
14.31439726,9406
14.3252637,9134
14.33613014,8890
14.34699658,8650
14.35786302,8325
14.36872946,8203
14.3795959,7693
14.39046234,7731
14.40132878,7544
14.41219522,7312
14.42306166,7064
14.4339281,6907
14.44479454,6821
14.45566098,6509
14.46652742,6465
14.47739386,6340
14.4882603,6258
14.49912674,5934
14.50999318,5890
14.52085962,5855
14.53172606,5853
14.5425925,5747
14.55345894,5693
14.56432538,5512
14.57519182,5609
14.58605826,5334
14.5969247,5112
14.60779114,5242
14.61865758,5111
14.62952402,5134
14.64039046,4987
14.6512569,4945
14.66212334,4910
14.67298978,4815
14.68385622,4822
14.69472266,4771
14.7055891,4677
14.71645554,4748
14.72732198,4522
14.73818842,4555
14.74905486,4488
14.7599213,4289
14.77078774,4432
14.78165418,4370
14.79252062,4244
14.80338706,4301
14.8142535,4280
14.82511994,4240
14.83598638,4264
14.84685282,4146
14.85771926,4133
14.8685857,4145
14.87945214,4145
14.89031858,4093
14.90118502,3950
14.91205146,4068
14.9229179,4036
14.93378434,3995
14.94465078,3916
14.95551722,3943
14.96638366,3916
14.9772501,3817
14.98811654,3822
14.99898298,3837
15.00984942,3721
15.02071586,3861
15.0315823,3792
15.04244874,3822
15.05331518,3781
15.06418162,3737
15.07504806,3600
15.0859145,3704
15.09678094,3611
15.10764738,3599
15.11851382,3612
15.12938026,3615
15.1402467,3591
15.15111314,3598
15.16197958,3620
15.17284602,3597
15.18371246,3476
15.1945789,3564
15.20544534,3576
15.21631178,3511
15.22717822,3512
15.23804466,3366
15.2489111,3443
15.25977754,3397
15.27064398,3404
15.28151042,3459
15.29237686,3345
15.3032433,3403
15.31410974,3347
15.32497618,3326
15.33584262,3360
15.34670906,3334
15.3575755,3311
15.36844194,3377
15.37930838,3341
15.39017482,3318
15.40104126,3334
15.4119077,3296
15.42277414,3338
15.43364058,3379
15.44450702,3312
15.45537346,3272
15.4662399,3229
15.47710634,3218
15.48797278,3231
15.49883922,3142
15.50970566,3254
15.5205721,3125
15.53143854,3132
15.54230498,3176
15.55317142,3162
15.56403786,3210
15.5749043,3115
15.58577074,3077
15.59663718,3160
15.60750362,3128
15.61837006,3215
15.6292365,3109
15.64010294,3192
15.65096938,3133
15.66183582,3098
15.67270226,3119
15.6835687,3079
15.69443514,3212
15.70530158,3118
15.71616802,3089
15.72703446,3104
15.7379009,3113
15.74876734,3036
15.75963378,3061
15.77050022,3093
15.78136666,3031
15.7922331,2989
15.80309954,3094
15.81396598,3132
15.82483242,3019
15.83569886,2988
15.8465653,2973
15.85743174,2916
15.86829818,2996
15.87916462,2897
15.89003106,2986
15.9008975,3003
15.91176394,3075
15.92263038,3071
15.93349682,3006
15.94436326,2980
15.9552297,3083
15.96609614,2924
15.97696258,2985
15.98782902,2955
15.99869546,3047
16.0095619,2929
16.02042834,2966
16.03129478,2954
16.04216122,2919
16.05302766,2997
16.0638941,2921
16.07476054,3005
16.08562698,2937
16.09649342,2945
16.10735986,2884
16.1182263,3010
16.12909274,2960
16.13995918,2981
16.15082562,2940
16.16169206,2882
16.1725585,2978
16.18342494,2990
16.19429138,2913
16.20515782,2821
16.21602426,2962
16.2268907,2883
16.23775714,2801
16.24862358,3004
16.25949002,2921
16.27035646,2860
16.2812229,2804
16.29208934,2873
16.30295578,2810
16.31382222,2838
16.32468866,2907
16.3355551,2772
16.34642154,2929
16.35728798,2808
16.36815442,2846
16.37902086,2791
16.3898873,2887
16.40075374,2819
16.41162018,2783
16.42248662,2816
16.43335306,2809
16.4442195,2861
16.45508594,2732
16.46595238,2809
16.47681882,2722
16.48768526,2796
16.4985517,2748
16.50941814,2791
16.52028458,2820
16.53115102,2704
16.54201746,2824
16.5528839,2777
16.56375034,2757
16.57461678,2757
16.58548322,2739
16.59634966,2814
16.6072161,2725
16.61808254,2673
16.62894898,2722
16.63981542,2855
16.65068186,2757
16.6615483,2666
16.67241474,2819
16.68328118,2747
16.69414762,2739
16.70501406,2717
16.7158805,2723
16.72674694,2773
16.73761338,2696
16.74847982,2689
16.75934626,2584
16.7702127,2729
16.78107914,2732
16.79194558,2771
16.80281202,2648
16.81367846,2799
16.8245449,2726
16.83541134,2646
16.84627778,2698
16.85714422,2748
16.86801066,2663
16.8788771,2645
16.88974354,2612
16.90060998,2608
16.91147642,2552
16.92234286,2649
16.9332093,2577
16.94407574,2662
16.95494218,2717
16.96580862,2694
16.97667506,2680
16.9875415,2722
16.99840794,2708
17.00927438,2664
17.02014082,2734
17.03100726,2613
17.0418737,2598
17.05274014,2607
17.06360658,2616
17.07447302,2675
17.08533946,2643
17.0962059,2666
17.10707234,2598
17.11793878,2608
17.12880522,2465
17.13967166,2714
17.1505381,2627
17.16140454,2629
17.17227098,2686
17.18313742,2655
17.19400386,2616
17.2048703,2645
17.21573674,2660
17.22660318,2647
17.23746962,2660
17.24833606,2548
17.2592025,2559
17.27006894,2576
17.28093538,2527
17.29180182,2627
17.30266826,2690
17.3135347,2687
17.32440114,2561
17.33526758,2557
17.34613402,2536
17.35700046,2537
17.3678669,2648
17.37873334,2536
17.38959978,2594
17.40046622,2559
17.41133266,2527
17.4221991,2498
17.43306554,2604
17.44393198,2555
17.45479842,2495
17.46566486,2532
17.4765313,2616
17.48739774,2587
17.49826418,2557
17.50913062,2550
17.51999706,2455
17.5308635,2577
17.54172994,2521
17.55259638,2452
17.56346282,2600
17.57432926,2557
17.5851957,2531
17.59606214,2574
17.60692858,2549
17.61779502,2477
17.62866146,2551
17.6395279,2446
17.65039434,2538
17.66126078,2475
17.67212722,2576
17.68299366,2532
17.6938601,2475
17.70472654,2484
17.71559298,2631
17.72645942,2559
17.73732586,2487
17.7481923,2505
17.75905874,2566
17.76992518,2575
17.78079162,2585
17.79165806,2456
17.8025245,2514
17.81339094,2556
17.82425738,2482
17.83512382,2531
17.84599026,2451
17.8568567,2417
17.86772314,2509
17.87858958,2477
17.88945602,2566
17.90032246,2463
17.9111889,2517
17.92205534,2444
17.93292178,2512
17.94378822,2456
17.95465466,2581
17.9655211,2459
17.97638754,2462
17.98725398,2561
17.99812042,2476
18.00898686,2481
18.0198533,2477
18.03071974,2527
18.04158618,2638
18.05245262,2468
18.06331906,2443
18.0741855,2425
18.08505194,2491
18.09591838,2400
18.10678482,2461
18.11765126,2492
18.1285177,2499
18.13938414,2458
18.15025058,2483
18.16111702,2579
18.17198346,2458
18.1828499,2465
18.19371634,2405
18.20458278,2483
18.21544922,2504
18.22631566,2518
18.2371821,2582
18.24804854,2430
18.25891498,2535
18.26978142,2485
18.28064786,2436
18.2915143,2451
18.30238074,2497
18.31324718,2450
18.32411362,2541
18.33498006,2466
18.3458465,2385
18.35671294,2512
18.36757938,2520
18.37844582,2504
18.38931226,2394
18.4001787,2463
18.41104514,2485
18.42191158,2449
18.43277802,2406
18.44364446,2411
18.4545109,2434
18.46537734,2451
18.47624378,2367
18.48711022,2434
18.49797666,2519
18.5088431,2413
18.51970954,2572
18.53057598,2511
18.54144242,2400
18.55230886,2412
18.5631753,2398
18.57404174,2404
18.58490818,2514
18.59577462,2383
18.60664106,2414
18.6175075,2511
18.62837394,2393
18.63924038,2494
18.65010682,2507
18.66097326,2547
18.6718397,2544
18.68270614,2370
18.69357258,2451
18.70443902,2436
18.71530546,2393
18.7261719,2431
18.73703834,2421
18.74790478,2422
18.75877122,2401
18.76963766,2475
18.7805041,2514
18.79137054,2452
18.80223698,2422
18.81310342,2413
18.82396986,2457
18.8348363,2369
18.84570274,2424
18.85656918,2354
18.86743562,2443
18.87830206,2344
18.8891685,2489
18.90003494,2349
18.91090138,2404
18.92176782,2441
18.93263426,2478
18.9435007,2434
18.95436714,2455
18.96523358,2457
18.97610002,2399
18.98696646,2400
18.9978329,2351
19.00869934,2427
19.01956578,2442
19.03043222,2442
19.04129866,2389
19.0521651,2476
19.06303154,2544
19.07389798,2462
19.08476442,2437
19.09563086,2549
19.1064973,2432
19.11736374,2414
19.12823018,2437
19.13909662,2430
19.14996306,2456
19.1608295,2462
19.17169594,2387
19.18256238,2441
19.19342882,2487
19.20429526,2489
19.2151617,2362
19.22602814,2398
19.23689458,2388
19.24776102,2453
19.25862746,2340
19.2694939,2433
19.28036034,2473
19.29122678,2369
19.30209322,2475
19.31295966,2430
19.3238261,2485
19.33469254,2395
19.34555898,2427
19.35642542,2403
19.36729186,2420
19.3781583,2471
19.38902474,2406
19.39989118,2486
19.41075762,2524
19.42162406,2348
19.4324905,2441
19.44335694,2390
19.45422338,2355
19.46508982,2456
19.47595626,2365
19.4868227,2446
19.49768914,2447
19.50855558,2486
19.51942202,2433
19.53028846,2433
19.5411549,2423
19.55202134,2453
19.56288778,2440
19.57375422,2381
19.58462066,2445
19.5954871,2446
19.60635354,2438
19.61721998,2438
19.62808642,2375
19.63895286,2429
19.6498193,2441
19.66068574,2478
19.67155218,2437
19.68241862,2355
19.69328506,2468
19.7041515,2414
19.71501794,2420
19.72588438,2512
19.73675082,2410
19.74761726,2436
19.7584837,2514
19.76935014,2380
19.78021658,2381
19.79108302,2368
19.80194946,2372
19.8128159,2370
19.82368234,2416
19.83454878,2403
19.84541522,2313
19.85628166,2505
19.8671481,2439
19.87801454,2365
19.88888098,2417
19.89974742,2491
19.91061386,2465
19.9214803,2368
19.93234674,2419
19.94321318,2476
19.95407962,2467
19.96494606,2498
19.9758125,2417
19.98667894,2435
19.99754538,2404
20.00841182,2443
20.01927826,2493
20.0301447,2463
20.04101114,2523
20.05187758,2409
20.06274402,2507
20.07361046,2362
20.0844769,2423
20.09534334,2485
20.10620978,2429
20.11707622,2478
20.12794266,2596
20.1388091,2494
20.14967554,2514
20.16054198,2488
20.17140842,2591
20.18227486,2538
20.1931413,2478
20.20400774,2524
20.21487418,2628
20.22574062,2564
20.23660706,2541
20.2474735,2411
20.25833994,2572
20.26920638,2492
20.28007282,2467
20.29093926,2548
20.3018057,2600
20.31267214,2544
20.32353858,2499
20.33440502,2558
20.34527146,2466
20.3561379,2451
20.36700434,2590
20.37787078,2447
20.38873722,2560
20.39960366,2575
20.4104701,2519
20.42133654,2555
20.43220298,2464
20.44306942,2547
20.45393586,2491
20.4648023,2418
20.47566874,2507
20.48653518,2494
20.49740162,2483
20.50826806,2413
20.5191345,2515
20.53000094,2439
20.54086738,2464
20.55173382,2428
20.56260026,2464
20.5734667,2455
20.58433314,2467
20.59519958,2493
20.60606602,2462
20.61693246,2465
20.6277989,2409
20.63866534,2375
20.64953178,2454
20.66039822,2448
20.67126466,2419
20.6821311,2418
20.69299754,2395
20.70386398,2408
20.71473042,2466
20.72559686,2525
20.7364633,2393
20.74732974,2422
20.75819618,2393
20.76906262,2327
20.77992906,2389
20.7907955,2332
20.80166194,2491
20.81252838,2433
20.82339482,2437
20.83426126,2420
20.8451277,2521
20.85599414,2438
20.86686058,2409
20.87772702,2489
20.88859346,2440
20.8994599,2419
20.91032634,2448
20.92119278,2335
20.93205922,2407
20.94292566,2451
20.9537921,2394
20.96465854,2438
20.97552498,2459
20.98639142,2385
20.99725786,2371
21.0081243,2542
21.01899074,2463
21.02985718,2456
21.04072362,2492
21.05159006,2515
21.0624565,2403
21.07332294,2417
21.08418938,2364
21.09505582,2341
21.10592226,2381
21.1167887,2384
21.12765514,2383
21.13852158,2474
21.14938802,2364
21.16025446,2380
21.1711209,2335
21.18198734,2351
21.19285378,2417
21.20372022,2333
21.21458666,2312
21.2254531,2349
21.23631954,2357
21.24718598,2395
21.25805242,2373
21.26891886,2305
21.2797853,2313
21.29065174,2378
21.30151818,2338
21.31238462,2333
21.32325106,2365
21.3341175,2357
21.34498394,2363
21.35585038,2299
21.36671682,2259
21.37758326,2303
21.3884497,2263
21.39931614,2297
21.41018258,2219
21.42104902,2337
21.43191546,2248
21.4427819,2283
21.45364834,2345
21.46451478,2248
21.47538122,2414
21.48624766,2287
21.4971141,2259
21.50798054,2327
21.51884698,2238
21.52971342,2386
21.54057986,2381
21.5514463,2281
21.56231274,2219
21.57317918,2287
21.58404562,2292
21.59491206,2313
21.6057785,2302
21.61664494,2225
21.62751138,2284
21.63837782,2174
21.64924426,2438
21.6601107,2247
21.67097714,2376
21.68184358,2222
21.69271002,2254
21.70357646,2310
21.7144429,2373
21.72530934,2295
21.73617578,2399
21.74704222,2359
21.75790866,2348
21.7687751,2326
21.77964154,2354
21.79050798,2279
21.80137442,2304
21.81224086,2229
21.8231073,2312
21.83397374,2224
21.84484018,2297
21.85570662,2228
21.86657306,2211
21.8774395,2319
21.88830594,2281
21.89917238,2356
21.91003882,2286
21.92090526,2225
21.9317717,2334
21.94263814,2259
21.95350458,2290
21.96437102,2220
21.97523746,2320
21.9861039,2207
21.99697034,2339
22.00783678,2322
22.01870322,2313
22.02956966,2339
22.0404361,2325
22.05130254,2315
22.06216898,2294
22.07303542,2306
22.08390186,2339
22.0947683,2375
22.10563474,2324
22.11650118,2380
22.12736762,2426
22.13823406,2343
22.1491005,2393
22.15996694,2439
22.17083338,2380
22.18169982,2380
22.19256626,2463
22.2034327,2474
22.21429914,2356
22.22516558,2387
22.23603202,2323
22.24689846,2378
22.2577649,2422
22.26863134,2376
22.27949778,2462
22.29036422,2427
22.30123066,2478
22.3120971,2451
22.32296354,2539
22.33382998,2521
22.34469642,2468
22.35556286,2490
22.3664293,2548
22.37729574,2482
22.38816218,2507
22.39902862,2501
22.40989506,2612
22.4207615,2611
22.43162794,2572
22.44249438,2535
22.45336082,2631
22.46422726,2657
22.4750937,2626
22.48596014,2685
22.49682658,2626
22.50769302,2753
22.51855946,2698
22.5294259,2772
22.54029234,2689
22.55115878,2835
22.56202522,2811
22.57289166,2821
22.5837581,2855
22.59462454,2775
22.60549098,2825
22.61635742,2894
22.62722386,2906
22.6380903,2830
22.64895674,2836
22.65982318,2895
22.67068962,2861
22.68155606,2854
22.6924225,3023
22.70328894,2897
22.71415538,2912
22.72502182,2973
22.73588826,2895
22.7467547,3033
22.75762114,3038
22.76848758,2898
22.77935402,2973
22.79022046,3130
22.8010869,3108
22.81195334,3057
22.82281978,3185
22.83368622,3049
22.84455266,3083
22.8554191,3185
22.86628554,3156
22.87715198,3121
22.88801842,3140
22.89888486,3070
22.9097513,3098
22.92061774,3128
22.93148418,3002
22.94235062,3105
22.95321706,2998
22.9640835,3007
22.97494994,3054
22.98581638,3075
22.99668282,3130
23.00754926,3006
23.0184157,3084
23.02928214,3067
23.04014858,3073
23.05101502,3044
23.06188146,3134
23.0727479,3045
23.08361434,3013
23.09448078,2989
23.10534722,3000
23.11621366,2976
23.1270801,2950
23.13794654,3055
23.14881298,2841
23.15967942,2905
23.17054586,2999
23.1814123,2968
23.19227874,2844
23.20314518,2861
23.21401162,2990
23.22487806,2953
23.2357445,2947
23.24661094,2935
23.25747738,2905
23.26834382,3136
23.27921026,2986
23.2900767,2977
23.30094314,2853
23.31180958,2833
23.32267602,2833
23.33354246,2991
23.3444089,2768
23.35527534,2931
23.36614178,2945
23.37700822,3052
23.38787466,2867
23.3987411,2916
23.40960754,2823
23.42047398,2888
23.43134042,2852
23.44220686,2809
23.4530733,2917
23.46393974,2939
23.47480618,2904
23.48567262,2922
23.49653906,2861
23.5074055,2845
23.51827194,2826
23.52913838,2890
23.54000482,3018
23.55087126,2886
23.5617377,2876
23.57260414,2819
23.58347058,2858
23.59433702,2884
23.60520346,2924
23.6160699,2769
23.62693634,2957
23.63780278,2809
23.64866922,2801
23.65953566,2837
23.6704021,2906
23.68126854,2875
23.69213498,2897
23.70300142,2875
23.71386786,2751
23.7247343,2874
23.73560074,2950
23.74646718,2851
23.75733362,2914
23.76820006,2952
23.7790665,2856
23.78993294,2797
23.80079938,2799
23.81166582,2889
23.82253226,2889
23.8333987,2831
23.84426514,2919
23.85513158,2915
23.86599802,2867
23.87686446,2979
23.8877309,2849
23.89859734,2908
23.90946378,2892
23.92033022,2968
23.93119666,2854
23.9420631,2928
23.95292954,2853
23.96379598,2834
23.97466242,2825
23.98552886,2841
23.9963953,2845
24.00726174,2840
24.01812818,2851
24.02899462,2807
24.03986106,2879
24.0507275,2853
24.06159394,2812
24.07246038,2894
24.08332682,2858
24.09419326,2823
24.1050597,2812
24.11592614,2845
24.12679258,2790
24.13765902,2811
24.14852546,2889
24.1593919,2835
24.17025834,2855
24.18112478,2822
24.19199122,2747
24.20285766,2809
24.2137241,2680
24.22459054,2777
24.23545698,2819
24.24632342,2730
24.25718986,2761
24.2680563,2798
24.27892274,2886
24.28978918,2785
24.30065562,2733
24.31152206,2813
24.3223885,2770
24.33325494,2788
24.34412138,2809
24.35498782,2827
24.36585426,2802
24.3767207,2928
24.38758714,2838
24.39845358,2923
24.40932002,2792
24.42018646,2814
24.4310529,2815
24.44191934,2770
24.45278578,2842
24.46365222,2751
24.47451866,2787
24.4853851,2758
24.49625154,2831
24.50711798,2780
24.51798442,2829
24.52885086,2762
24.5397173,2854
24.55058374,2772
24.56145018,2772
24.57231662,2842
24.58318306,2724
24.5940495,2761
24.60491594,2860
24.61578238,2848
24.62664882,2809
24.63751526,2740
24.6483817,2829
24.65924814,2724
24.67011458,2865
24.68098102,2674
24.69184746,2708
24.7027139,2831
24.71358034,2863
24.72444678,2796
24.73531322,2714
24.74617966,2792
24.7570461,2768
24.76791254,2788
24.77877898,2841
24.78964542,2792
24.80051186,2878
24.8113783,2692
24.82224474,2669
24.83311118,2761
24.84397762,2805
24.85484406,2780
24.8657105,2816
24.87657694,2653
24.88744338,2772
24.89830982,2713
24.90917626,2769
24.9200427,2738
24.93090914,2746
24.94177558,2792
24.95264202,2813
24.96350846,2682
24.9743749,2737
24.98524134,2832
24.99610778,2733
25.00697422,2749
25.01784066,2788
25.0287071,2887
25.03957354,2772
25.05043998,2823
25.06130642,2870
25.07217286,2719
25.0830393,2785
25.09390574,2866
25.10477218,2834
25.11563862,2768
25.12650506,2762
25.1373715,2800
25.14823794,2741
25.15910438,2766
25.16997082,2756
25.18083726,2719
25.1917037,2772
25.20257014,2759
25.21343658,2615
25.22430302,2624
25.23516946,2776
25.2460359,2627
25.25690234,2733
25.26776878,2838
25.27863522,2712
25.28950166,2698
25.3003681,2770
25.31123454,2809
25.32210098,2760
25.33296742,2654
25.34383386,2780
25.3547003,2794
25.36556674,2706
25.37643318,2851
25.38729962,2724
25.39816606,2778
25.4090325,2730
25.41989894,2766
25.43076538,2616
25.44163182,2687
25.45249826,2749
25.4633647,2696
25.47423114,2730
25.48509758,2689
25.49596402,2743
25.50683046,2748
25.5176969,2676
25.52856334,2627
25.53942978,2773
25.55029622,2713
25.56116266,2725
25.5720291,2776
25.58289554,2680
25.59376198,2743
25.60462842,2780
25.61549486,2786
25.6263613,2738
25.63722774,2730
25.64809418,2729
25.65896062,2786
25.66982706,2666
25.6806935,2812
25.69155994,2776
25.70242638,2705
25.71329282,2762
25.72415926,2684
25.7350257,2754
25.74589214,2765
25.75675858,2805
25.76762502,2837
25.77849146,2797
25.7893579,2702
25.80022434,2663
25.81109078,2742
25.82195722,2775
25.83282366,2821
25.8436901,2798
25.85455654,2811
25.86542298,2759
25.87628942,2632
25.88715586,2789
25.8980223,2735
25.90888874,2798
25.91975518,2866
25.93062162,2732
25.94148806,2827
25.9523545,2711
25.96322094,2846
25.97408738,2807
25.98495382,2811
25.99582026,2822
26.0066867,2853
26.01755314,2772
26.02841958,2773
26.03928602,2885
26.05015246,2828
26.0610189,2676
26.07188534,2733
26.08275178,2847
26.09361822,2741
26.10448466,2754
26.1153511,2877
26.12621754,2744
26.13708398,2829
26.14795042,2731
26.15881686,2865
26.1696833,2799
26.18054974,2790
26.19141618,2780
26.20228262,2742
26.21314906,2733
26.2240155,2681
26.23488194,2827
26.24574838,2804
26.25661482,2834
26.26748126,2819
26.2783477,2795
26.28921414,2878
26.30008058,2786
26.31094702,2805
26.32181346,2845
26.3326799,2657
26.34354634,2792
26.35441278,2849
26.36527922,2818
26.37614566,2866
26.3870121,2795
26.39787854,2913
26.40874498,2860
26.41961142,2769
26.43047786,2878
26.4413443,2860
26.45221074,2906
26.46307718,2769
26.47394362,2858
26.48481006,2747
26.4956765,2862
26.50654294,2866
26.51740938,2769
26.52827582,2758
26.53914226,2786
26.5500087,2813
26.56087514,2816
26.57174158,2837
26.58260802,2806
26.59347446,2831
26.6043409,2882
26.61520734,2912
26.62607378,2982
26.63694022,2793
26.64780666,2878
26.6586731,2796
26.66953954,2909
26.68040598,2825
26.69127242,2869
26.70213886,2962
26.7130053,2888
26.72387174,2860
26.73473818,2929
26.74560462,2842
26.75647106,2834
26.7673375,2920
26.77820394,3003
26.78907038,2962
26.79993682,2967
26.81080326,2797
26.8216697,2856
26.83253614,2949
26.84340258,2944
26.85426902,2835
26.86513546,2942
26.8760019,2913
26.88686834,2890
26.89773478,2903
26.90860122,2936
26.91946766,2926
26.9303341,2956
26.94120054,2939
26.95206698,2945
26.96293342,2951
26.97379986,2977
26.9846663,2938
26.99553274,3045
27.00639918,2988
27.01726562,2959
27.02813206,2995
27.0389985,2995
27.04986494,2924
27.06073138,3021
27.07159782,3049
27.08246426,2981
27.0933307,3050
27.10419714,2987
27.11506358,3020
27.12593002,3089
27.13679646,3157
27.1476629,3081
27.15852934,3113
27.16939578,3147
27.18026222,3094
27.19112866,3111
27.2019951,3045
27.21286154,3057
27.22372798,3093
27.23459442,3021
27.24546086,3077
27.2563273,3181
27.26719374,3191
27.27806018,3124
27.28892662,3143
27.29979306,3145
27.3106595,3175
27.32152594,3227
27.33239238,3164
27.34325882,3237
27.35412526,3157
27.3649917,3311
27.37585814,3313
27.38672458,3184
27.39759102,3143
27.40845746,3173
27.4193239,3309
27.43019034,3308
27.44105678,3240
27.45192322,3255
27.46278966,3233
27.4736561,3328
27.48452254,3418
27.49538898,3439
27.50625542,3305
27.51712186,3483
27.5279883,3356
27.53885474,3402
27.54972118,3411
27.56058762,3492
27.57145406,3495
27.5823205,3373
27.59318694,3491
27.60405338,3441
27.61491982,3448
27.62578626,3577
27.6366527,3494
27.64751914,3627
27.65838558,3619
27.66925202,3503
27.68011846,3657
27.6909849,3576
27.70185134,3651
27.71271778,3707
27.72358422,3552
27.73445066,3694
27.7453171,3652
27.75618354,3642
27.76704998,3701
27.77791642,3754
27.78878286,4007
27.7996493,3793
27.81051574,3746
27.82138218,3843
27.83224862,4005
27.84311506,3976
27.8539815,3992
27.86484794,4046
27.87571438,4072
27.88658082,3942
27.89744726,4236
27.9083137,4100
27.91918014,4209
27.93004658,4219
27.94091302,4188
27.95177946,4313
27.9626459,4309
27.97351234,4376
27.98437878,4415
27.99524522,4378
28.00611166,4311
28.0169781,4541
28.02784454,4542
28.03871098,4559
28.04957742,4648
28.06044386,4678
28.0713103,4669
28.08217674,4769
28.09304318,4710
28.10390962,4794
28.11477606,4939
28.1256425,5188
28.13650894,5091
28.14737538,5096
28.15824182,5268
28.16910826,5278
28.1799747,5314
28.19084114,5432
28.20170758,5554
28.21257402,5579
28.22344046,5598
28.2343069,5854
28.24517334,5823
28.25603978,5949
28.26690622,6094
28.27777266,6254
28.2886391,6266
28.29950554,6570
28.31037198,6579
28.32123842,6732
28.33210486,6834
28.3429713,6932
28.35383774,7130
28.36470418,7352
28.37557062,7452
28.38643706,7724
28.3973035,7763
28.40816994,8199
28.41903638,8166
28.42990282,8293
28.44076926,8702
28.4516357,8962
28.46250214,9181
28.47336858,9429
28.48423502,9535
28.49510146,10018
28.5059679,10402
28.51683434,10612
28.52770078,10756
28.53856722,11190
28.54943366,11813
28.5603001,12014
28.57116654,12310
28.58203298,12343
28.59289942,13121
28.60376586,13232
28.6146323,13338
28.62549874,13614
28.63636518,14160
28.64723162,14057
28.65809806,14310
28.6689645,14408
28.67983094,14552
28.69069738,14730
28.70156382,14950
28.71243026,14722
28.7232967,14646
28.73416314,14498
28.74502958,14690
28.75589602,14528
28.76676246,14502
28.7776289,14287
28.78849534,14057
28.79936178,13502
28.81022822,13607
28.82109466,13406
28.8319611,12864
28.84282754,12785
28.85369398,12409
28.86456042,12078
28.87542686,12068
28.8862933,11631
28.89715974,11214
28.90802618,10953
28.91889262,10728
28.92975906,10465
28.9406255,10105
28.95149194,9929
28.96235838,9841
28.97322482,9386
28.98409126,9451
28.9949577,9331
29.00582414,8973
29.01669058,8876
29.02755702,8630
29.03842346,8542
29.0492899,8506
29.06015634,8235
29.07102278,8023
29.08188922,7961
29.09275566,7963
29.1036221,7674
29.11448854,7738
29.12535498,7544
29.13622142,7585
29.14708786,7373
29.1579543,7141
29.16882074,7130
29.17968718,7108
29.19055362,6979
29.20142006,7012
29.2122865,6921
29.22315294,6649
29.23401938,6626
29.24488582,6554
29.25575226,6541
29.2666187,6597
29.27748514,6389
29.28835158,6353
29.29921802,6289
29.31008446,6298
29.3209509,6239
29.33181734,6026
29.34268378,6178
29.35355022,5982
29.36441666,6086
29.3752831,5828
29.38614954,5880
29.39701598,5808
29.40788242,5876
29.41874886,5735
29.4296153,5714
29.44048174,5681
29.45134818,5660
29.46221462,5566
29.47308106,5668
29.4839475,5509
29.49481394,5610
29.50568038,5443
29.51654682,5436
29.52741326,5543
29.5382797,5447
29.54914614,5341
29.56001258,5334
29.57087902,5464
29.58174546,5320
29.5926119,5365
29.60347834,5348
29.61434478,5194
29.62521122,5217
29.63607766,5098
29.6469441,5226
29.65781054,5046
29.66867698,5171
29.67954342,5149
29.69040986,5166
29.7012763,5171
29.71214274,5033
29.72300918,5028
29.73387562,5157
29.74474206,4854
29.7556085,5013
29.76647494,5040
29.77734138,5084
29.78820782,5081
29.79907426,5054
29.8099407,4968
29.82080714,4984
29.83167358,4902
29.84254002,4674
29.85340646,5025
29.8642729,4766
29.87513934,4883
29.88600578,4933
29.89687222,4886
29.90773866,4782
29.9186051,4678
29.92947154,4905
29.94033798,4642
29.95120442,4864
29.96207086,4818
29.9729373,4704
29.98380374,4944
29.99467018,4780
