"Angle","Counts"
3.00243322,25545
3.01329966,25482
3.0241661,25130
3.03503254,24785
3.04589898,24430
3.05676542,24210
3.06763186,24117
3.0784983,23726
3.08936474,23244
3.10023118,23132
3.11109762,22982
3.12196406,22862
3.1328305,22609
3.14369694,22273
3.15456338,22253
3.16542982,22078
3.17629626,21818
3.1871627,21482
3.19802914,21147
3.20889558,21295
3.21976202,21117
3.23062846,20891
3.2414949,20681
3.25236134,20557
3.26322778,20260
3.27409422,20061
3.28496066,19824
3.2958271,20077
3.30669354,19771
3.31755998,19366
3.32842642,19417
3.33929286,19407
3.3501593,19090
3.36102574,18988
3.37189218,18542
3.38275862,18727
3.39362506,18599
3.4044915,18280
3.41535794,18093
3.42622438,17777
3.43709082,17851
3.44795726,17607
3.4588237,17604
3.46969014,17367
3.48055658,17376
3.49142302,17130
3.50228946,17233
3.5131559,16779
3.52402234,16702
3.53488878,16780
3.54575522,16671
3.55662166,16412
3.5674881,16396
3.57835454,16220
3.58922098,16109
3.60008742,15933
3.61095386,16027
3.6218203,15569
3.63268674,15255
3.64355318,15407
3.65441962,15119
3.66528606,15276
3.6761525,15112
3.68701894,15291
3.69788538,15138
3.70875182,14659
3.71961826,14677
3.7304847,14555
3.74135114,14446
3.75221758,14381
3.76308402,14267
3.77395046,14190
3.7848169,14029
3.79568334,13980
3.80654978,13889
3.81741622,13821
3.82828266,13593
3.8391491,13620
3.85001554,13616
3.86088198,13416
3.87174842,13389
3.88261486,13255
3.8934813,13408
3.90434774,13139
3.91521418,12832
3.92608062,12913
3.93694706,13029
3.9478135,12956
3.95867994,12660
3.96954638,12804
3.98041282,12440
3.99127926,12466
4.0021457,12628
4.01301214,12346
4.02387858,12185
4.03474502,12057
4.04561146,12033
4.0564779,12074
4.06734434,11950
4.07821078,12107
4.08907722,11821
4.09994366,11544
4.1108101,11743
4.12167654,11743
4.13254298,11444
4.14340942,11543
4.15427586,11321
4.1651423,11399
4.17600874,11272
4.18687518,11330
4.19774162,11096
4.20860806,11166
4.2194745,11120
4.23034094,10934
4.24120738,10862
4.25207382,10777
4.26294026,10914
4.2738067,10734
4.28467314,10819
4.29553958,10553
4.30640602,10514
4.31727246,10549
4.3281389,10339
4.33900534,10577
4.34987178,10401
4.36073822,10335
4.37160466,10313
4.3824711,10435
4.39333754,10221
4.40420398,10125
4.41507042,10066
4.42593686,10060
4.4368033,9936
4.44766974,9924
4.45853618,9829
4.46940262,9916
4.48026906,10016
4.4911355,9883
4.50200194,9650
4.51286838,9806
4.52373482,9598
4.53460126,9545
4.5454677,9581
4.55633414,9538
4.56720058,9290
4.57806702,9399
4.58893346,9469
4.5997999,9365
4.61066634,9752
4.62153278,9513
4.63239922,9328
4.64326566,9380
4.6541321,9424
4.66499854,9251
4.67586498,9174
4.68673142,9217
4.69759786,9193
4.7084643,8988
4.71933074,9043
4.73019718,8845
4.74106362,9112
4.75193006,8841
4.7627965,8944
4.77366294,9062
4.78452938,8891
4.79539582,8748
4.80626226,8834
4.8171287,8833
4.82799514,8869
4.83886158,8594
4.84972802,8591
4.86059446,8681
4.8714609,8682
4.88232734,8700
4.89319378,8551
4.90406022,8720
4.91492666,8642
4.9257931,8439
4.93665954,8385
4.94752598,8433
4.95839242,8558
4.96925886,8410
4.9801253,8620
4.99099174,8430
5.00185818,8400
5.01272462,8418
5.02359106,8410
5.0344575,8276
5.04532394,8343
5.05619038,8257
5.06705682,8198
5.07792326,8222
5.0887897,8185
5.09965614,8140
5.11052258,8196
5.12138902,8282
5.13225546,8143
5.1431219,8026
5.15398834,8015
5.16485478,8036
5.17572122,7961
5.18658766,7952
5.1974541,8150
5.20832054,8008
5.21918698,8005
5.23005342,8090
5.24091986,8052
5.2517863,7846
5.26265274,7913
5.27351918,7902
5.28438562,7849
5.29525206,7997
5.3061185,7895
5.31698494,7980
5.32785138,7792
5.33871782,7951
5.34958426,7853
5.3604507,7806
5.37131714,7621
5.38218358,7766
5.39305002,7746
5.40391646,7759
5.4147829,7733
5.42564934,7698
5.43651578,7489
5.44738222,7740
5.45824866,7839
5.4691151,7772
5.47998154,7616
5.49084798,7530
5.50171442,7605
5.51258086,7467
5.5234473,7631
5.53431374,7506
5.54518018,7429
5.55604662,7537
5.56691306,7685
5.5777795,7491
5.58864594,7572
5.59951238,7537
5.61037882,7592
5.62124526,7557
5.6321117,7632
5.64297814,7423
5.65384458,7520
5.66471102,7734
5.67557746,7555
5.6864439,7410
5.69731034,7461
5.70817678,7358
5.71904322,7601
5.72990966,7384
5.7407761,7339
5.75164254,7420
5.76250898,7453
5.77337542,7391
5.78424186,7530
5.7951083,7496
5.80597474,7287
5.81684118,7296
5.82770762,7348
5.83857406,7382
5.8494405,7322
5.86030694,7420
5.87117338,7406
5.88203982,7363
5.89290626,7375
5.9037727,7371
5.91463914,7523
5.92550558,7145
5.93637202,7180
5.94723846,7277
5.9581049,7245
5.96897134,7295
5.97983778,7154
5.99070422,7318
6.00157066,7382
6.0124371,7303
6.02330354,7273
6.03416998,7354
6.04503642,7220
6.05590286,7373
6.0667693,7060
6.07763574,7214
6.08850218,7099
6.09936862,7166
6.11023506,7160
6.1211015,7151
6.13196794,7187
6.14283438,7233
6.15370082,7371
6.16456726,7299
6.1754337,7156
6.18630014,7131
6.19716658,7264
6.20803302,7232
6.21889946,7153
6.2297659,7117
6.24063234,7148
6.25149878,7179
6.26236522,7194
6.27323166,7081
6.2840981,7204
6.29496454,7021
6.30583098,7061
6.31669742,7132
6.32756386,7022
6.3384303,7044
6.34929674,7178
6.36016318,7155
6.37102962,7219
6.38189606,7096
6.3927625,7179
6.40362894,7224
6.41449538,7228
6.42536182,7137
6.43622826,7130
6.4470947,6931
6.45796114,7141
6.46882758,6959
6.47969402,7162
6.49056046,7039
6.5014269,7081
6.51229334,6976
6.52315978,7078
6.53402622,6965
6.54489266,6978
6.5557591,6829
6.56662554,6901
6.57749198,6961
6.58835842,7171
6.59922486,7017
6.6100913,6901
6.62095774,6928
6.63182418,6951
6.64269062,6899
6.65355706,7059
6.6644235,6942
6.67528994,7016
6.68615638,6964
6.69702282,7052
6.70788926,7064
6.7187557,6888
6.72962214,6811
6.74048858,7106
6.75135502,6918
6.76222146,6788
6.7730879,6964
6.78395434,6796
6.79482078,6928
6.80568722,6793
6.81655366,6702
6.8274201,6988
6.83828654,6943
6.84915298,6908
6.86001942,6796
6.87088586,6774
6.8817523,7070
6.89261874,6790
6.90348518,6888
6.91435162,6823
6.92521806,6898
6.9360845,6908
6.94695094,6839
6.95781738,6788
6.96868382,6711
6.97955026,6846
6.9904167,6764
7.00128314,6822
7.01214958,6733
7.02301602,6810
7.03388246,6762
7.0447489,6996
7.05561534,6799
7.06648178,6773
7.07734822,6714
7.08821466,6783
7.0990811,6702
7.10994754,6642
7.12081398,6724
7.13168042,6736
7.14254686,6683
7.1534133,6523
7.16427974,6821
7.17514618,6835
7.18601262,6784
7.19687906,6704
7.2077455,6588
7.21861194,6576
7.22947838,6751
7.24034482,6618
7.25121126,6697
7.2620777,6558
7.27294414,6724
7.28381058,6636
7.29467702,6634
7.30554346,6726
7.3164099,6597
7.32727634,6573
7.33814278,6438
7.34900922,6475
7.35987566,6567
7.3707421,6527
7.38160854,6699
7.39247498,6574
7.40334142,6449
7.41420786,6683
7.4250743,6621
7.43594074,6608
7.44680718,6533
7.45767362,6581
7.46854006,6489
7.4794065,6387
7.49027294,6620
7.50113938,6468
7.51200582,6505
7.52287226,6489
7.5337387,6615
7.54460514,6583
7.55547158,6450
7.56633802,6556
7.57720446,6515
7.5880709,6503
7.59893734,6439
7.60980378,6528
7.62067022,6419
7.63153666,6468
7.6424031,6468
7.65326954,6523
7.66413598,6545
7.67500242,6338
7.68586886,6506
7.6967353,6473
7.70760174,6549
7.71846818,6519
7.72933462,6430
7.74020106,6500
7.7510675,6543
7.76193394,6561
7.77280038,6543
7.78366682,6401
7.79453326,6418
7.8053997,6406
7.81626614,6432
7.82713258,6457
7.83799902,6429
7.84886546,6505
7.8597319,6276
7.87059834,6333
7.88146478,6384
7.89233122,6318
7.90319766,6395
7.9140641,6331
7.92493054,6277
7.93579698,6337
7.94666342,6260
7.95752986,6239
7.9683963,6368
7.97926274,6456
7.99012918,6477
8.00099562,6424
8.01186206,6523
8.0227285,6390
8.03359494,6206
8.04446138,6439
8.05532782,6389
8.06619426,6324
8.0770607,6233
8.08792714,6362
8.09879358,6222
8.10966002,6469
8.12052646,6319
8.1313929,6313
8.14225934,6283
8.15312578,6307
8.16399222,6384
8.17485866,6375
8.1857251,6317
8.19659154,6306
8.20745798,6408
8.21832442,6226
8.22919086,6359
8.2400573,6375
8.25092374,6341
8.26179018,6287
8.27265662,6290
8.28352306,6228
8.2943895,6381
8.30525594,6266
8.31612238,6355
8.32698882,6136
8.33785526,6273
8.3487217,6277
8.35958814,6261
8.37045458,6210
8.38132102,6184
8.39218746,6316
8.4030539,6348
8.41392034,6070
8.42478678,6369
8.43565322,6222
8.44651966,6243
8.4573861,6219
8.46825254,6358
8.47911898,6219
8.48998542,6158
8.50085186,6208
8.5117183,6109
8.52258474,6207
8.53345118,6452
8.54431762,6339
8.55518406,6180
8.5660505,6273
8.57691694,6318
8.58778338,6099
8.59864982,6190
8.60951626,6295
8.6203827,6199
8.63124914,6187
8.64211558,6233
8.65298202,6186
8.66384846,6207
8.6747149,6258
8.68558134,6341
8.69644778,6235
8.70731422,6338
8.71818066,6342
8.7290471,6298
8.73991354,6061
8.75077998,6321
8.76164642,5981
8.77251286,6298
8.7833793,6312
8.79424574,6251
8.80511218,6279
8.81597862,6442
8.82684506,6235
8.8377115,6450
8.84857794,6125
8.85944438,6331
8.87031082,6264
8.88117726,6375
8.8920437,6208
8.90291014,6355
8.91377658,6105
8.92464302,6237
8.93550946,6220
8.9463759,6280
8.95724234,6364
8.96810878,6314
8.97897522,6218
8.98984166,6349
9.0007081,6237
9.01157454,6256
9.02244098,6272
9.03330742,6431
9.04417386,6159
9.0550403,6214
9.06590674,6245
9.07677318,6289
9.08763962,6323
9.09850606,6304
9.1093725,6260
9.12023894,6364
9.13110538,6166
9.14197182,6504
9.15283826,6353
9.1637047,6286
9.17457114,6271
9.18543758,6263
9.19630402,6284
9.20717046,6244
9.2180369,6306
9.22890334,6250
9.23976978,6365
9.25063622,6404
9.26150266,6186
9.2723691,6375
9.28323554,6335
9.29410198,6512
9.30496842,6340
9.31583486,6435
9.3267013,6455
9.33756774,6406
9.34843418,6423
9.35930062,6362
9.37016706,6444
9.3810335,6343
9.39189994,6431
9.40276638,6539
9.41363282,6315
9.42449926,6444
9.4353657,6458
9.44623214,6573
9.45709858,6596
9.46796502,6598
9.47883146,6665
9.4896979,6451
9.50056434,6565
9.51143078,6622
9.52229722,6644
9.53316366,6746
9.5440301,6609
9.55489654,6653
9.56576298,6691
9.57662942,6601
9.58749586,6696
9.5983623,6850
9.60922874,6710
9.62009518,6764
9.63096162,6682
9.64182806,6753
9.6526945,6838
9.66356094,6803
9.67442738,6825
9.68529382,6860
9.69616026,6636
9.7070267,6928
9.71789314,6809
9.72875958,6846
9.73962602,6927
9.75049246,7060
9.7613589,6922
9.77222534,6997
9.78309178,7141
9.79395822,6975
9.80482466,7136
9.8156911,7024
9.82655754,7111
9.83742398,7022
9.84829042,7089
9.85915686,7057
9.8700233,7177
9.88088974,7141
9.89175618,7195
9.90262262,7270
9.91348906,7324
9.9243555,7347
9.93522194,7248
9.94608838,7158
9.95695482,7268
9.96782126,7205
9.9786877,7079
9.98955414,7170
10.00042058,7008
10.01128702,7050
10.02215346,7211
10.0330199,6890
10.04388634,6994
10.05475278,6798
10.06561922,6892
10.07648566,6780
10.0873521,6855
10.09821854,6683
10.10908498,6859
10.11995142,6668
10.13081786,6593
10.1416843,6696
10.15255074,6744
10.16341718,6744
10.17428362,6609
10.18515006,6546
10.1960165,6576
10.20688294,6684
10.21774938,6563
10.22861582,6805
10.23948226,6572
10.2503487,6487
10.26121514,6459
10.27208158,6475
10.28294802,6469
10.29381446,6516
10.3046809,6493
10.31554734,6379
10.32641378,6412
10.33728022,6547
10.34814666,6414
10.3590131,6586
10.36987954,6321
10.38074598,6442
10.39161242,6413
10.40247886,6449
10.4133453,6356
10.42421174,6218
10.43507818,6376
10.44594462,6284
10.45681106,6378
10.4676775,6474
10.47854394,6282
10.48941038,6286
10.50027682,6189
10.51114326,6426
10.5220097,6335
10.53287614,6335
10.54374258,6217
10.55460902,6376
10.56547546,6419
10.5763419,6337
10.58720834,6412
10.59807478,6402
10.60894122,6375
10.61980766,6355
10.6306741,6208
10.64154054,6446
10.65240698,6265
10.66327342,6410
10.67413986,6370
10.6850063,6322
10.69587274,6253
10.70673918,6418
10.71760562,6275
10.72847206,6286
10.7393385,6293
10.75020494,6063
10.76107138,6256
10.77193782,6204
10.78280426,6196
10.7936707,6212
10.80453714,6241
10.81540358,6298
10.82627002,6178
10.83713646,6215
10.8480029,6257
10.85886934,6249
10.86973578,6160
10.88060222,6178
10.89146866,6201
10.9023351,6181
10.91320154,6160
10.92406798,6228
10.93493442,6035
10.94580086,6009
10.9566673,6137
10.96753374,6049
10.97840018,6232
10.98926662,6109
11.00013306,6145
11.0109995,6128
11.02186594,6045
11.03273238,6227
11.04359882,6130
11.05446526,6208
11.0653317,5928
11.07619814,6189
11.08706458,5885
11.09793102,6348
11.10879746,6085
11.1196639,6172
11.13053034,6192
11.14139678,6001
11.15226322,6067
11.16312966,6071
11.1739961,6082
11.18486254,6128
11.19572898,5996
11.20659542,6019
11.21746186,6039
11.2283283,6148
11.23919474,6014
11.25006118,6061
11.26092762,6106
11.27179406,6150
11.2826605,6002
11.29352694,6073
11.30439338,5988
11.31525982,5961
11.32612626,6009
11.3369927,6142
11.34785914,5973
11.35872558,6021
11.36959202,6240
11.38045846,5978
11.3913249,6197
11.40219134,6129
11.41305778,6203
11.42392422,6103
11.43479066,6050
11.4456571,5998
11.45652354,6098
11.46738998,5958
11.47825642,6148
11.48912286,6061
11.4999893,5980
11.51085574,5922
11.52172218,5982
11.53258862,5930
11.54345506,6156
11.5543215,6170
11.56518794,6231
11.57605438,6031
11.58692082,5939
11.59778726,5998
11.6086537,6092
11.61952014,6031
11.63038658,6063
11.64125302,6219
11.65211946,6063
11.6629859,6020
11.67385234,6044
11.68471878,6071
11.69558522,6063
11.70645166,5934
11.7173181,6003
11.72818454,6031
11.73905098,6008
11.74991742,6037
11.76078386,6124
11.7716503,6147
11.78251674,6038
11.79338318,5989
11.80424962,5954
11.81511606,5929
11.8259825,5995
11.83684894,5907
11.84771538,6044
11.85858182,6065
11.86944826,6196
11.8803147,5980
11.89118114,5992
11.90204758,6146
11.91291402,5957
11.92378046,5998
11.9346469,6105
11.94551334,6122
11.95637978,6113
11.96724622,5966
11.97811266,6098
11.9889791,6231
11.99984554,6058
12.01071198,6070
12.02157842,6183
12.03244486,6123
12.0433113,6093
12.05417774,5968
12.06504418,6192
12.07591062,6043
12.08677706,6098
12.0976435,6085
12.10850994,6203
12.11937638,6012
12.13024282,6208
12.14110926,5980
12.1519757,6135
12.16284214,6043
12.17370858,6093
12.18457502,6074
12.19544146,6007
12.2063079,6195
12.21717434,6142
12.22804078,6271
12.23890722,6044
12.24977366,6218
12.2606401,6110
12.27150654,6253
12.28237298,6104
12.29323942,6133
12.30410586,6042
12.3149723,6120
12.32583874,6058
12.33670518,6184
12.34757162,6187
12.35843806,6213
12.3693045,6207
12.38017094,6181
12.39103738,6155
12.40190382,6293
12.41277026,6377
12.4236367,6193
12.43450314,6149
12.44536958,6235
12.45623602,6326
12.46710246,6182
12.4779689,6121
12.48883534,6003
12.49970178,6381
12.51056822,6217
12.52143466,6324
12.5323011,6170
12.54316754,6270
12.55403398,6351
12.56490042,6193
12.57576686,6309
12.5866333,6194
12.59749974,6264
12.60836618,6207
12.61923262,6391
12.63009906,6352
12.6409655,6337
12.65183194,6397
12.66269838,6390
12.67356482,6361
12.68443126,6195
12.6952977,6227
12.70616414,6307
12.71703058,6341
12.72789702,6569
12.73876346,6285
12.7496299,6492
12.76049634,6361
12.77136278,6514
12.78222922,6466
12.79309566,6340
12.8039621,6480
12.81482854,6382
12.82569498,6283
12.83656142,6451
12.84742786,6425
12.8582943,6477
12.86916074,6581
12.88002718,6540
12.89089362,6532
12.90176006,6576
12.9126265,6483
12.92349294,6466
12.93435938,6577
12.94522582,6541
12.95609226,6313
12.9669587,6683
12.97782514,6594
12.98869158,6652
12.99955802,6707
13.01042446,6666
13.0212909,6607
13.03215734,6602
13.04302378,6768
13.05389022,6806
13.06475666,6988
13.0756231,6807
13.08648954,6823
13.09735598,6903
13.10822242,6746
13.11908886,6771
13.1299553,6991
13.14082174,6897
13.15168818,7073
13.16255462,7124
13.17342106,6967
13.1842875,7020
13.19515394,7135
13.20602038,7240
13.21688682,7135
13.22775326,7337
13.2386197,7132
13.24948614,7184
13.26035258,7251
13.27121902,7166
13.28208546,7203
13.2929519,7467
13.30381834,7441
13.31468478,7614
13.32555122,7639
13.33641766,7595
13.3472841,7768
13.35815054,7757
13.36901698,7780
13.37988342,7789
13.39074986,7904
13.4016163,7851
13.41248274,7883
13.42334918,8198
13.43421562,8286
13.44508206,8332
13.4559485,8399
13.46681494,8475
13.47768138,8579
13.48854782,8664
13.49941426,8996
13.5102807,8761
13.52114714,9073
13.53201358,9200
13.54288002,9151
13.55374646,9236
13.5646129,9503
13.57547934,9636
13.58634578,9776
13.59721222,9924
13.60807866,10169
13.6189451,10349
13.62981154,10362
13.64067798,10565
13.65154442,10710
13.66241086,11002
13.6732773,11260
13.68414374,11451
13.69501018,11742
13.70587662,11897
13.71674306,12212
13.7276095,12460
13.73847594,12656
13.74934238,13151
13.76020882,13206
13.77107526,13477
13.7819417,13993
13.79280814,13995
13.80367458,14766
13.81454102,15020
13.82540746,15380
13.8362739,15511
13.84714034,16422
13.85800678,16481
13.86887322,16681
13.87973966,16952
13.8906061,17613
13.90147254,18032
13.91233898,18355
13.92320542,18506
13.93407186,18797
13.9449383,19728
13.95580474,19574
13.96667118,20076
13.97753762,19942
13.98840406,20145
13.9992705,20404
14.01013694,20504
14.02100338,20537
14.03186982,20657
14.04273626,20036
14.0536027,19860
14.06446914,19409
14.07533558,18592
14.08620202,18126
14.09706846,17339
14.1079349,16420
14.11880134,15855
14.12966778,15245
14.14053422,14053
14.15140066,13619
14.1622671,12816
14.17313354,12296
14.18399998,11641
14.19486642,11095
14.20573286,10740
14.2165993,10294
14.22746574,9963
14.23833218,9450
14.24919862,9368
14.26006506,8774
14.2709315,8504
14.28179794,8186
14.29266438,7921
14.30353082,7812
14.31439726,7645
14.3252637,7414
14.33613014,7310
14.34699658,7018
14.35786302,6892
14.36872946,6674
14.3795959,6715
14.39046234,6537
14.40132878,6450
14.41219522,6273
14.42306166,6238
14.4339281,6136
14.44479454,5986
14.45566098,5789
14.46652742,5708
14.47739386,5809
14.4882603,5455
14.49912674,5548
14.50999318,5469
14.52085962,5393
14.53172606,5459
14.5425925,5296
14.55345894,5289
14.56432538,5137
14.57519182,5034
14.58605826,5062
14.5969247,5040
14.60779114,4971
14.61865758,4802
14.62952402,4940
14.64039046,4839
14.6512569,4687
14.66212334,4771
14.67298978,4676
14.68385622,4602
14.69472266,4650
14.7055891,4519
14.71645554,4643
14.72732198,4553
14.73818842,4473
14.74905486,4466
14.7599213,4321
14.77078774,4394
14.78165418,4341
14.79252062,4391
14.80338706,4319
14.8142535,4167
14.82511994,4280
14.83598638,4303
14.84685282,4205
14.85771926,4227
14.8685857,4240
14.87945214,4143
14.89031858,3962
14.90118502,4079
14.91205146,3941
14.9229179,4015
14.93378434,4091
14.94465078,4095
14.95551722,3984
14.96638366,4028
14.9772501,4059
14.98811654,4002
14.99898298,3882
15.00984942,3947
15.02071586,3903
15.0315823,3963
15.04244874,3882
15.05331518,3938
15.06418162,3846
15.07504806,3767
15.0859145,3841
15.09678094,3857
15.10764738,3758
15.11851382,3820
15.12938026,3708
15.1402467,3722
15.15111314,3687
15.16197958,3735
15.17284602,3761
15.18371246,3633
15.1945789,3797
15.20544534,3615
15.21631178,3577
15.22717822,3521
15.23804466,3522
15.2489111,3466
15.25977754,3612
15.27064398,3593
15.28151042,3588
15.29237686,3500
15.3032433,3489
15.31410974,3737
15.32497618,3563
15.33584262,3559
15.34670906,3511
15.3575755,3496
15.36844194,3636
15.37930838,3481
15.39017482,3500
15.40104126,3408
15.4119077,3344
15.42277414,3337
15.43364058,3398
15.44450702,3552
15.45537346,3381
15.4662399,3598
15.47710634,3410
15.48797278,3383
15.49883922,3339
15.50970566,3338
15.5205721,3345
15.53143854,3407
15.54230498,3399
15.55317142,3408
15.56403786,3360
15.5749043,3403
15.58577074,3295
15.59663718,3291
15.60750362,3347
15.61837006,3390
15.6292365,3297
15.64010294,3232
15.65096938,3269
15.66183582,3273
15.67270226,3293
15.6835687,3311
15.69443514,3352
15.70530158,3201
15.71616802,3215
15.72703446,3210
15.7379009,3217
15.74876734,3259
15.75963378,3292
15.77050022,3332
15.78136666,3220
15.7922331,3318
15.80309954,3143
15.81396598,3220
15.82483242,3172
15.83569886,3241
15.8465653,3146
15.85743174,3095
15.86829818,3032
15.87916462,3137
15.89003106,3155
15.9008975,3137
15.91176394,3105
15.92263038,3195
15.93349682,3219
15.94436326,3094
15.9552297,3108
15.96609614,3143
15.97696258,3060
15.98782902,3094
15.99869546,3147
16.0095619,3033
16.02042834,3009
16.03129478,3164
16.04216122,3106
16.05302766,3267
16.0638941,3035
16.07476054,3142
16.08562698,2996
16.09649342,3044
16.10735986,2978
16.1182263,3018
16.12909274,3170
16.13995918,2975
16.15082562,2994
16.16169206,2928
16.1725585,3015
16.18342494,3026
16.19429138,3065
16.20515782,3010
16.21602426,3108
16.2268907,3019
16.23775714,2949
16.24862358,2979
16.25949002,3006
16.27035646,3039
16.2812229,2910
16.29208934,2967
16.30295578,3016
16.31382222,3046
16.32468866,2902
16.3355551,2984
16.34642154,2980
16.35728798,3053
16.36815442,2974
16.37902086,3034
16.3898873,2914
16.40075374,2969
16.41162018,3024
16.42248662,2937
16.43335306,3051
16.4442195,2875
16.45508594,2921
16.46595238,2900
16.47681882,2846
16.48768526,3002
16.4985517,2842
16.50941814,2978
16.52028458,3000
16.53115102,2789
16.54201746,2825
16.5528839,3022
16.56375034,2967
16.57461678,2838
16.58548322,2941
16.59634966,2963
16.6072161,2842
16.61808254,2913
16.62894898,2774
16.63981542,2857
16.65068186,2904
16.6615483,2950
16.67241474,2880
16.68328118,2888
16.69414762,2929
16.70501406,2948
16.7158805,2860
16.72674694,2957
16.73761338,2796
16.74847982,2895
16.75934626,2812
16.7702127,2882
16.78107914,2937
16.79194558,2811
16.80281202,2876
16.81367846,2847
16.8245449,2809
16.83541134,2851
16.84627778,2858
16.85714422,2801
16.86801066,2796
16.8788771,2944
16.88974354,2833
16.90060998,2759
16.91147642,2807
16.92234286,2827
16.9332093,2860
16.94407574,2833
16.95494218,2796
16.96580862,2795
16.97667506,2868
16.9875415,2849
16.99840794,2821
17.00927438,2926
17.02014082,2868
17.03100726,2768
17.0418737,2725
17.05274014,2864
17.06360658,2803
17.07447302,2896
17.08533946,2789
17.0962059,2812
17.10707234,2851
17.11793878,2815
17.12880522,2792
17.13967166,2738
17.1505381,2851
17.16140454,2856
17.17227098,2797
17.18313742,2812
17.19400386,2791
17.2048703,2820
17.21573674,2837
17.22660318,2816
17.23746962,2786
17.24833606,2735
17.2592025,2817
17.27006894,2709
17.28093538,2723
17.29180182,2800
17.30266826,2697
17.3135347,2692
17.32440114,2778
17.33526758,2596
17.34613402,2786
17.35700046,2737
17.3678669,2626
17.37873334,2742
17.38959978,2755
17.40046622,2778
17.41133266,2702
17.4221991,2691
17.43306554,2805
17.44393198,2688
17.45479842,2695
17.46566486,2786
17.4765313,2777
17.48739774,2790
17.49826418,2725
17.50913062,2669
17.51999706,2670
17.5308635,2737
17.54172994,2687
17.55259638,2741
17.56346282,2713
17.57432926,2713
17.5851957,2677
17.59606214,2697
17.60692858,2738
17.61779502,2657
17.62866146,2692
17.6395279,2687
17.65039434,2662
17.66126078,2610
17.67212722,2714
17.68299366,2676
17.6938601,2661
17.70472654,2621
17.71559298,2744
17.72645942,2732
17.73732586,2700
17.7481923,2591
17.75905874,2657
17.76992518,2694
17.78079162,2667
17.79165806,2655
17.8025245,2718
17.81339094,2666
17.82425738,2686
17.83512382,2657
17.84599026,2703
17.8568567,2748
17.86772314,2700
17.87858958,2663
17.88945602,2654
17.90032246,2699
17.9111889,2558
17.92205534,2738
17.93292178,2677
17.94378822,2762
17.95465466,2603
17.9655211,2628
17.97638754,2734
17.98725398,2621
17.99812042,2636
18.00898686,2559
18.0198533,2607
18.03071974,2699
18.04158618,2547
18.05245262,2712
18.06331906,2665
18.0741855,2678
18.08505194,2690
18.09591838,2786
18.10678482,2721
18.11765126,2715
18.1285177,2601
18.13938414,2628
18.15025058,2634
18.16111702,2740
18.17198346,2613
18.1828499,2676
18.19371634,2608
18.20458278,2736
18.21544922,2756
18.22631566,2602
18.2371821,2659
18.24804854,2719
18.25891498,2699
18.26978142,2670
18.28064786,2672
18.2915143,2702
18.30238074,2679
18.31324718,2630
18.32411362,2655
18.33498006,2640
18.3458465,2611
18.35671294,2665
18.36757938,2669
18.37844582,2629
18.38931226,2578
18.4001787,2608
18.41104514,2678
18.42191158,2646
18.43277802,2544
18.44364446,2661
18.4545109,2707
18.46537734,2597
18.47624378,2641
18.48711022,2590
18.49797666,2676
18.5088431,2603
18.51970954,2700
18.53057598,2753
18.54144242,2619
18.55230886,2706
18.5631753,2662
18.57404174,2709
18.58490818,2564
18.59577462,2613
18.60664106,2588
18.6175075,2663
18.62837394,2628
18.63924038,2617
18.65010682,2499
18.66097326,2622
18.6718397,2588
18.68270614,2735
18.69357258,2548
18.70443902,2676
18.71530546,2608
18.7261719,2673
18.73703834,2666
18.74790478,2575
18.75877122,2734
18.76963766,2569
18.7805041,2672
18.79137054,2524
18.80223698,2561
18.81310342,2635
18.82396986,2634
18.8348363,2573
18.84570274,2617
18.85656918,2629
18.86743562,2632
18.87830206,2608
18.8891685,2617
18.90003494,2629
18.91090138,2694
18.92176782,2594
18.93263426,2649
18.9435007,2593
18.95436714,2758
18.96523358,2568
18.97610002,2608
18.98696646,2665
18.9978329,2633
19.00869934,2537
19.01956578,2620
19.03043222,2689
19.04129866,2615
19.0521651,2690
19.06303154,2752
19.07389798,2635
19.08476442,2610
19.09563086,2578
19.1064973,2618
19.11736374,2643
19.12823018,2679
19.13909662,2638
19.14996306,2603
19.1608295,2602
19.17169594,2655
19.18256238,2643
19.19342882,2633
19.20429526,2579
19.2151617,2562
19.22602814,2625
19.23689458,2608
19.24776102,2569
19.25862746,2582
19.2694939,2581
19.28036034,2580
19.29122678,2578
19.30209322,2559
19.31295966,2655
19.3238261,2530
19.33469254,2644
19.34555898,2736
19.35642542,2597
19.36729186,2636
19.3781583,2608
19.38902474,2583
19.39989118,2582
19.41075762,2704
19.42162406,2557
19.4324905,2590
19.44335694,2570
19.45422338,2584
19.46508982,2613
19.47595626,2634
19.4868227,2639
19.49768914,2557
19.50855558,2683
19.51942202,2570
19.53028846,2670
19.5411549,2602
19.55202134,2604
19.56288778,2570
19.57375422,2622
19.58462066,2678
19.5954871,2748
19.60635354,2664
19.61721998,2583
19.62808642,2712
19.63895286,2717
19.6498193,2661
19.66068574,2580
19.67155218,2655
19.68241862,2692
19.69328506,2707
19.7041515,2612
19.71501794,2691
19.72588438,2752
19.73675082,2563
19.74761726,2691
19.7584837,2719
19.76935014,2697
19.78021658,2654
19.79108302,2698
19.80194946,2702
19.8128159,2670
19.82368234,2671
19.83454878,2643
19.84541522,2660
19.85628166,2651
19.8671481,2622
19.87801454,2738
19.88888098,2675
19.89974742,2724
19.91061386,2723
19.9214803,2745
19.93234674,2707
19.94321318,2693
19.95407962,2697
19.96494606,2685
19.9758125,2689
19.98667894,2667
19.99754538,2742
20.00841182,2755
20.01927826,2787
20.0301447,2774
20.04101114,2683
20.05187758,2755
20.06274402,2782
20.07361046,2717
20.0844769,2760
20.09534334,2825
20.10620978,2742
20.11707622,2864
20.12794266,2774
20.1388091,2765
20.14967554,2729
20.16054198,2851
20.17140842,2828
20.18227486,2938
20.1931413,2924
20.20400774,2859
20.21487418,2824
20.22574062,2886
20.23660706,2827
20.2474735,2843
20.25833994,2887
20.26920638,3006
20.28007282,2996
20.29093926,2913
20.3018057,2894
20.31267214,2996
20.32353858,2905
20.33440502,3015
20.34527146,2877
20.3561379,3020
20.36700434,2952
20.37787078,2917
20.38873722,2962
20.39960366,3007
20.4104701,2809
20.42133654,2814
20.43220298,2776
20.44306942,2945
20.45393586,2839
20.4648023,2876
20.47566874,2852
20.48653518,2831
20.49740162,2937
20.50826806,2842
20.5191345,2811
20.53000094,2755
20.54086738,2861
20.55173382,2764
20.56260026,2858
20.5734667,2663
20.58433314,2739
20.59519958,2704
20.60606602,2801
20.61693246,2830
20.6277989,2740
20.63866534,2797
20.64953178,2760
20.66039822,2821
20.67126466,2738
20.6821311,2821
20.69299754,2673
20.70386398,2707
20.71473042,2689
20.72559686,2700
20.7364633,2664
20.74732974,2711
20.75819618,2745
20.76906262,2706
20.77992906,2683
20.7907955,2681
20.80166194,2687
20.81252838,2673
20.82339482,2788
20.83426126,2676
20.8451277,2859
20.85599414,2782
20.86686058,2786
20.87772702,2768
20.88859346,2721
20.8994599,2859
20.91032634,2714
20.92119278,2726
20.93205922,2779
20.94292566,2767
20.9537921,2890
20.96465854,2766
20.97552498,2744
20.98639142,2752
20.99725786,2806
21.0081243,2756
21.01899074,2763
21.02985718,2789
21.04072362,2695
21.05159006,2611
21.0624565,2782
21.07332294,2750
21.08418938,2781
21.09505582,2676
21.10592226,2757
21.1167887,2641
21.12765514,2687
21.13852158,2704
21.14938802,2752
21.16025446,2680
21.1711209,2785
21.18198734,2749
21.19285378,2717
21.20372022,2667
21.21458666,2585
21.2254531,2684
21.23631954,2687
21.24718598,2608
21.25805242,2742
21.26891886,2809
21.2797853,2746
21.29065174,2795
21.30151818,2611
21.31238462,2692
21.32325106,2715
21.3341175,2692
21.34498394,2634
21.35585038,2736
21.36671682,2731
21.37758326,2744
21.3884497,2654
21.39931614,2769
21.41018258,2770
21.42104902,2668
21.43191546,2661
21.4427819,2666
21.45364834,2727
21.46451478,2682
21.47538122,2652
21.48624766,2674
21.4971141,2750
21.50798054,2674
21.51884698,2700
21.52971342,2720
21.54057986,2630
21.5514463,2814
21.56231274,2656
21.57317918,2644
21.58404562,2756
21.59491206,2694
21.6057785,2723
21.61664494,2719
21.62751138,2736
21.63837782,2732
21.64924426,2680
21.6601107,2643
21.67097714,2726
21.68184358,2702
21.69271002,2767
21.70357646,2662
21.7144429,2713
21.72530934,2791
21.73617578,2804
21.74704222,2718
21.75790866,2699
21.7687751,2631
21.77964154,2678
21.79050798,2808
21.80137442,2706
21.81224086,2813
21.8231073,2727
21.83397374,2779
21.84484018,2722
21.85570662,2707
21.86657306,2796
21.8774395,2864
21.88830594,2791
21.89917238,2700
21.91003882,2712
21.92090526,2700
21.9317717,2783
21.94263814,2765
21.95350458,2764
21.96437102,2751
21.97523746,2800
21.9861039,2837
21.99697034,2822
22.00783678,2764
22.01870322,2753
22.02956966,2724
22.0404361,2718
22.05130254,2760
22.06216898,2854
22.07303542,2793
22.08390186,2894
22.0947683,2795
22.10563474,2778
22.11650118,2783
22.12736762,2765
22.13823406,2871
22.1491005,2781
22.15996694,2814
22.17083338,2864
22.18169982,2833
22.19256626,2899
22.2034327,2828
22.21429914,2925
22.22516558,2879
22.23603202,2988
22.24689846,2893
22.2577649,2946
22.26863134,2916
22.27949778,3055
22.29036422,2956
22.30123066,2952
22.3120971,2964
22.32296354,3045
22.33382998,3074
22.34469642,2995
22.35556286,3049
22.3664293,3104
22.37729574,3113
22.38816218,3084
22.39902862,3073
22.40989506,3162
22.4207615,3092
22.43162794,3130
22.44249438,3246
22.45336082,3220
22.46422726,3281
22.4750937,3240
22.48596014,3241
22.49682658,3448
22.50769302,3324
22.51855946,3325
22.5294259,3367
22.54029234,3464
22.55115878,3427
22.56202522,3385
22.57289166,3445
22.5837581,3433
22.59462454,3424
22.60549098,3617
22.61635742,3499
22.62722386,3545
22.6380903,3611
22.64895674,3690
22.65982318,3639
22.67068962,3662
22.68155606,3754
22.6924225,3831
22.70328894,3728
22.71415538,3731
22.72502182,3770
22.73588826,3807
22.7467547,3923
22.75762114,4063
22.76848758,4050
22.77935402,4007
22.79022046,4093
22.8010869,3947
22.81195334,4074
22.82281978,4069
22.83368622,3900
22.84455266,4005
22.8554191,4069
22.86628554,3960
22.87715198,4073
22.88801842,4032
22.89888486,3992
22.9097513,3933
22.92061774,4002
22.93148418,3890
22.94235062,4022
22.95321706,3834
22.9640835,3916
22.97494994,3877
22.98581638,3983
22.99668282,3859
23.00754926,3732
23.0184157,3912
23.02928214,3894
23.04014858,3755
23.05101502,3728
23.06188146,3756
23.0727479,3743
23.08361434,3725
23.09448078,3756
23.10534722,3726
23.11621366,3803
23.1270801,3831
23.13794654,3813
23.14881298,3802
23.15967942,3854
23.17054586,3787
23.1814123,3723
23.19227874,3735
23.20314518,3773
23.21401162,3828
23.22487806,3775
23.2357445,3856
23.24661094,3773
23.25747738,3736
23.26834382,3700
23.27921026,3598
23.2900767,3595
23.30094314,3725
23.31180958,3787
23.32267602,3745
23.33354246,3687
23.3444089,3777
23.35527534,3655
23.36614178,3691
23.37700822,3707
23.38787466,3818
23.3987411,3872
23.40960754,3715
23.42047398,3721
23.43134042,3708
23.44220686,3752
23.4530733,3595
23.46393974,3655
23.47480618,3655
23.48567262,3630
23.49653906,3714
23.5074055,3709
23.51827194,3624
23.52913838,3759
23.54000482,3700
23.55087126,3674
23.5617377,3617
23.57260414,3637
23.58347058,3625
23.59433702,3629
23.60520346,3622
23.6160699,3670
23.62693634,3755
23.63780278,3613
23.64866922,3660
23.65953566,3630
23.6704021,3637
23.68126854,3697
23.69213498,3635
23.70300142,3644
23.71386786,3735
23.7247343,3642
23.73560074,3674
23.74646718,3526
23.75733362,3585
23.76820006,3697
23.7790665,3619
23.78993294,3625
23.80079938,3681
23.81166582,3669
23.82253226,3611
23.8333987,3691
23.84426514,3599
23.85513158,3628
23.86599802,3612
23.87686446,3817
23.8877309,3768
23.89859734,3802
23.90946378,3782
23.92033022,3919
23.93119666,3821
23.9420631,3768
23.95292954,3780
23.96379598,3784
23.97466242,3889
23.98552886,3791
23.9963953,3788
24.00726174,3725
24.01812818,3712
24.02899462,3619
24.03986106,3699
24.0507275,3700
24.06159394,3615
24.07246038,3702
24.08332682,3712
24.09419326,3713
24.1050597,3598
24.11592614,3630
24.12679258,3637
24.13765902,3605
24.14852546,3607
24.1593919,3733
24.17025834,3567
24.18112478,3604
24.19199122,3661
24.20285766,3617
24.2137241,3616
24.22459054,3583
24.23545698,3761
24.24632342,3568
24.25718986,3675
24.2680563,3621
24.27892274,3638
24.28978918,3654
24.30065562,3649
24.31152206,3632
24.3223885,3722
24.33325494,3688
24.34412138,3637
24.35498782,3687
24.36585426,3524
24.3767207,3554
24.38758714,3659
24.39845358,3608
24.40932002,3544
24.42018646,3579
24.4310529,3635
24.44191934,3637
24.45278578,3620
24.46365222,3513
24.47451866,3528
24.4853851,3731
24.49625154,3550
24.50711798,3743
24.51798442,3595
24.52885086,3505
24.5397173,3601
24.55058374,3639
24.56145018,3628
24.57231662,3594
24.58318306,3507
24.5940495,3627
24.60491594,3524
24.61578238,3708
24.62664882,3664
24.63751526,3574
24.6483817,3605
24.65924814,3502
24.67011458,3592
24.68098102,3493
24.69184746,3569
24.7027139,3562
24.71358034,3588
24.72444678,3498
24.73531322,3517
24.74617966,3476
24.7570461,3493
24.76791254,3623
24.77877898,3384
24.78964542,3514
24.80051186,3483
24.8113783,3477
24.82224474,3490
24.83311118,3489
24.84397762,3502
24.85484406,3474
24.8657105,3532
24.87657694,3560
24.88744338,3554
24.89830982,3561
24.90917626,3577
24.9200427,3557
24.93090914,3476
24.94177558,3315
24.95264202,3573
24.96350846,3543
24.9743749,3544
24.98524134,3457
24.99610778,3569
25.00697422,3499
25.01784066,3520
25.0287071,3354
25.03957354,3432
25.05043998,3429
25.06130642,3500
25.07217286,3567
25.0830393,3412
25.09390574,3387
25.10477218,3392
25.11563862,3509
25.12650506,3536
25.1373715,3559
25.14823794,3438
25.15910438,3522
25.16997082,3375
25.18083726,3555
25.1917037,3446
25.20257014,3510
25.21343658,3497
25.22430302,3453
25.23516946,3449
25.2460359,3401
25.25690234,3523
25.26776878,3566
25.27863522,3410
25.28950166,3502
25.3003681,3424
25.31123454,3511
25.32210098,3433
25.33296742,3476
25.34383386,3455
25.3547003,3395
25.36556674,3497
25.37643318,3533
25.38729962,3476
25.39816606,3525
25.4090325,3532
25.41989894,3511
25.43076538,3408
25.44163182,3477
25.45249826,3533
25.4633647,3434
25.47423114,3484
25.48509758,3524
25.49596402,3547
25.50683046,3508
25.5176969,3465
25.52856334,3546
25.53942978,3402
25.55029622,3508
25.56116266,3552
25.5720291,3432
25.58289554,3546
25.59376198,3506
25.60462842,3444
25.61549486,3505
25.6263613,3429
25.63722774,3526
25.64809418,3446
25.65896062,3486
25.66982706,3489
25.6806935,3383
25.69155994,3523
25.70242638,3436
25.71329282,3577
25.72415926,3557
25.7350257,3553
25.74589214,3527
25.75675858,3359
25.76762502,3472
25.77849146,3411
25.7893579,3438
25.80022434,3562
25.81109078,3533
25.82195722,3508
25.83282366,3519
25.8436901,3562
25.85455654,3459
25.86542298,3466
25.87628942,3421
25.88715586,3385
25.8980223,3533
25.90888874,3507
25.91975518,3549
25.93062162,3463
25.94148806,3452
25.9523545,3499
25.96322094,3534
25.97408738,3488
25.98495382,3508
25.99582026,3380
26.0066867,3486
26.01755314,3424
26.02841958,3468
26.03928602,3425
26.05015246,3506
26.0610189,3556
26.07188534,3543
26.08275178,3491
26.09361822,3534
26.10448466,3456
26.1153511,3452
26.12621754,3483
26.13708398,3464
26.14795042,3430
26.15881686,3601
26.1696833,3448
26.18054974,3415
26.19141618,3545
26.20228262,3482
26.21314906,3481
26.2240155,3559
26.23488194,3479
26.24574838,3458
26.25661482,3534
26.26748126,3508
26.2783477,3332
26.28921414,3495
26.30008058,3550
26.31094702,3520
26.32181346,3499
26.3326799,3591
26.34354634,3499
26.35441278,3573
26.36527922,3566
26.37614566,3594
26.3870121,3427
26.39787854,3467
26.40874498,3503
26.41961142,3461
26.43047786,3540
26.4413443,3467
26.45221074,3463
26.46307718,3621
26.47394362,3418
26.48481006,3395
26.4956765,3519
26.50654294,3501
26.51740938,3491
26.52827582,3517
26.53914226,3491
26.5500087,3483
26.56087514,3572
26.57174158,3543
26.58260802,3643
26.59347446,3492
26.6043409,3385
26.61520734,3506
26.62607378,3506
26.63694022,3622
26.64780666,3467
26.6586731,3519
26.66953954,3565
26.68040598,3465
26.69127242,3578
26.70213886,3353
26.7130053,3517
26.72387174,3662
26.73473818,3473
26.74560462,3541
26.75647106,3598
26.7673375,3560
26.77820394,3571
26.78907038,3590
26.79993682,3590
26.81080326,3577
26.8216697,3551
26.83253614,3574
26.84340258,3635
26.85426902,3650
26.86513546,3610
26.8760019,3564
26.88686834,3492
26.89773478,3647
26.90860122,3502
26.91946766,3608
26.9303341,3680
26.94120054,3647
26.95206698,3640
26.96293342,3613
26.97379986,3648
26.9846663,3684
26.99553274,3674
27.00639918,3685
27.01726562,3705
27.02813206,3635
27.0389985,3547
27.04986494,3697
27.06073138,3590
27.07159782,3645
27.08246426,3641
27.0933307,3740
27.10419714,3622
27.11506358,3700
27.12593002,3685
27.13679646,3738
27.1476629,3696
27.15852934,3818
27.16939578,3603
27.18026222,3731
27.19112866,3699
27.2019951,3768
27.21286154,3794
27.22372798,3843
27.23459442,3724
27.24546086,3767
27.2563273,3617
27.26719374,3712
27.27806018,3812
27.28892662,3810
27.29979306,3803
27.3106595,3805
27.32152594,3835
27.33239238,3847
27.34325882,3837
27.35412526,3911
27.3649917,3790
27.37585814,3770
27.38672458,3761
27.39759102,3865
27.40845746,3899
27.4193239,3782
27.43019034,3913
27.44105678,3975
27.45192322,3833
27.46278966,3912
27.4736561,4003
27.48452254,3895
27.49538898,3966
27.50625542,4121
27.51712186,3956
27.5279883,4067
27.53885474,3999
27.54972118,3964
27.56058762,4046
27.57145406,4008
27.5823205,4113
27.59318694,4067
27.60405338,3851
27.61491982,3987
27.62578626,4222
27.6366527,4086
27.64751914,4037
27.65838558,4114
27.66925202,4265
27.68011846,4276
27.6909849,4127
27.70185134,4152
27.71271778,4213
27.72358422,4154
27.73445066,4382
27.7453171,4348
27.75618354,4372
27.76704998,4247
27.77791642,4176
27.78878286,4442
27.7996493,4317
27.81051574,4462
27.82138218,4382
27.83224862,4440
27.84311506,4366
27.8539815,4432
27.86484794,4530
27.87571438,4504
27.88658082,4679
27.89744726,4582
27.9083137,4751
27.91918014,4730
27.93004658,4712
27.94091302,4701
27.95177946,4850
27.9626459,4676
27.97351234,4702
27.98437878,4940
27.99524522,4925
28.00611166,4936
28.0169781,5169
28.02784454,5019
28.03871098,5008
28.04957742,5041
28.06044386,5037
28.0713103,5195
28.08217674,5184
28.09304318,5165
28.10390962,5363
28.11477606,5438
28.1256425,5389
28.13650894,5408
28.14737538,5488
28.15824182,5562
28.16910826,5752
28.1799747,5633
28.19084114,5780
28.20170758,5913
28.21257402,5997
28.22344046,6108
28.2343069,6145
28.24517334,6279
28.25603978,6335
28.26690622,6419
28.27777266,6576
28.2886391,6668
28.29950554,6590
28.31037198,6699
28.32123842,7096
28.33210486,6983
28.3429713,7268
28.35383774,7460
28.36470418,7633
28.37557062,7746
28.38643706,7938
28.3973035,8246
28.40816994,8346
28.41903638,8684
28.42990282,8818
28.44076926,8978
28.4516357,9537
28.46250214,10037
28.47336858,10150
28.48423502,10554
28.49510146,10903
28.5059679,11167
28.51683434,11683
28.52770078,11948
28.53856722,12514
28.54943366,13044
28.5603001,13460
28.57116654,13746
28.58203298,14393
28.59289942,14680
28.60376586,15099
28.6146323,15734
28.62549874,16075
28.63636518,16110
28.64723162,16428
28.65809806,16504
28.6689645,16668
28.67983094,16494
28.69069738,16300
28.70156382,15916
28.71243026,15623
28.7232967,15175
28.73416314,14632
28.74502958,14395
28.75589602,13889
28.76676246,13372
28.7776289,12889
28.78849534,12422
28.79936178,11930
28.81022822,11566
28.82109466,11121
28.8319611,10726
28.84282754,10374
28.85369398,10173
28.86456042,9869
28.87542686,9620
28.8862933,9495
28.89715974,9156
28.90802618,8957
28.91889262,8763
28.92975906,8599
28.9406255,8624
28.95149194,8143
28.96235838,8192
28.97322482,8026
28.98409126,7874
28.9949577,7840
29.00582414,7743
29.01669058,7695
29.02755702,7425
29.03842346,7467
29.0492899,7265
29.06015634,7245
29.07102278,7147
29.08188922,6999
29.09275566,6971
29.1036221,7029
29.11448854,6812
29.12535498,6960
29.13622142,6930
29.14708786,6726
29.1579543,6705
29.16882074,6832
29.17968718,6464
29.19055362,6427
29.20142006,6472
29.2122865,6417
29.22315294,6148
29.23401938,6141
29.24488582,6202
29.25575226,6113
29.2666187,6118
29.27748514,6192
29.28835158,5898
29.29921802,5836
29.31008446,5784
29.3209509,5763
29.33181734,5730
29.34268378,5769
29.35355022,5689
29.36441666,5690
29.3752831,5612
29.38614954,5710
29.39701598,5482
29.40788242,5505
29.41874886,5583
29.4296153,5397
29.44048174,5517
29.45134818,5391
29.46221462,5338
29.47308106,5206
29.4839475,5274
29.49481394,5268
29.50568038,5295
29.51654682,5228
29.52741326,5064
29.5382797,5303
29.54914614,5277
29.56001258,5025
29.57087902,5050
29.58174546,5056
29.5926119,4947
29.60347834,5078
29.61434478,5071
29.62521122,4952
29.63607766,4972
29.6469441,4955
29.65781054,5056
29.66867698,4937
29.67954342,4755
29.69040986,4795
29.7012763,4889
29.71214274,4779
29.72300918,4789
29.73387562,4781
29.74474206,4772
29.7556085,4843
29.76647494,4683
29.77734138,4629
29.78820782,4641
29.79907426,4773
29.8099407,4710
29.82080714,4693
29.83167358,4662
29.84254002,4645
29.85340646,4681
29.8642729,4545
29.87513934,4713
29.88600578,4489
29.89687222,4531
29.90773866,4568
29.9186051,4498
29.92947154,4561
29.94033798,4544
29.95120442,4566
29.96207086,4601
29.9729373,4418
29.98380374,4576
29.99467018,4485
