"Angle","Counts"
3.00243322,25900
3.01329966,25502
3.0241661,24985
3.03503254,25043
3.04589898,24538
3.05676542,24421
3.06763186,23930
3.0784983,23884
3.08936474,23567
3.10023118,23506
3.11109762,23155
3.12196406,23037
3.1328305,22593
3.14369694,22474
3.15456338,22045
3.16542982,21718
3.17629626,21637
3.1871627,21580
3.19802914,21315
3.20889558,20936
3.21976202,20887
3.23062846,20748
3.2414949,20363
3.25236134,20253
3.26322778,19793
3.27409422,19888
3.28496066,19483
3.2958271,19116
3.30669354,19215
3.31755998,19067
3.32842642,18812
3.33929286,18443
3.3501593,18161
3.36102574,18209
3.37189218,17864
3.38275862,17769
3.39362506,17592
3.4044915,17636
3.41535794,17364
3.42622438,17213
3.43709082,16731
3.44795726,16915
3.4588237,16912
3.46969014,16560
3.48055658,16522
3.49142302,16609
3.50228946,16191
3.5131559,15991
3.52402234,15725
3.53488878,16011
3.54575522,15683
3.55662166,15673
3.5674881,15327
3.57835454,15604
3.58922098,14992
3.60008742,15055
3.61095386,14549
3.6218203,14604
3.63268674,14938
3.64355318,14710
3.65441962,14407
3.66528606,14538
3.6761525,14148
3.68701894,14341
3.69788538,14149
3.70875182,14068
3.71961826,13994
3.7304847,13831
3.74135114,13544
3.75221758,13836
3.76308402,13596
3.77395046,13429
3.7848169,13491
3.79568334,13348
3.80654978,13154
3.81741622,13297
3.82828266,13084
3.8391491,12906
3.85001554,13081
3.86088198,12988
3.87174842,12750
3.88261486,12477
3.8934813,12659
3.90434774,12418
3.91521418,12344
3.92608062,12405
3.93694706,12161
3.9478135,11922
3.95867994,12205
3.96954638,12028
3.98041282,11926
3.99127926,11823
4.0021457,11836
4.01301214,11930
4.02387858,11642
4.03474502,11551
4.04561146,11588
4.0564779,11541
4.06734434,11553
4.07821078,11497
4.08907722,11482
4.09994366,11485
4.1108101,11238
4.12167654,11306
4.13254298,11346
4.14340942,11313
4.15427586,11083
4.1651423,11193
4.17600874,10969
4.18687518,11079
4.19774162,10949
4.20860806,10987
4.2194745,10986
4.23034094,10744
4.24120738,10712
4.25207382,10743
4.26294026,10660
4.2738067,10814
4.28467314,10704
4.29553958,10615
4.30640602,10663
4.31727246,10640
4.3281389,10334
4.33900534,10396
4.34987178,10453
4.36073822,10231
4.37160466,10208
4.3824711,10283
4.39333754,10284
4.40420398,10197
4.41507042,10335
4.42593686,10104
4.4368033,9965
4.44766974,10231
4.45853618,10025
4.46940262,10144
4.48026906,10163
4.4911355,10197
4.50200194,10234
4.51286838,10255
4.52373482,10107
4.53460126,10027
4.5454677,10044
4.55633414,9954
4.56720058,10090
4.57806702,9781
4.58893346,9883
4.5997999,9883
4.61066634,9934
4.62153278,10055
4.63239922,9804
4.64326566,9968
4.6541321,10052
4.66499854,9939
4.67586498,9878
4.68673142,9957
4.69759786,9828
4.7084643,9816
4.71933074,9866
4.73019718,9846
4.74106362,9827
4.75193006,9892
4.7627965,9840
4.77366294,9769
4.78452938,9995
4.79539582,9760
4.80626226,9769
4.8171287,9728
4.82799514,9786
4.83886158,9842
4.84972802,9751
4.86059446,9690
4.8714609,9884
4.88232734,9799
4.89319378,9918
4.90406022,9977
4.91492666,9826
4.9257931,10112
4.93665954,9838
4.94752598,10082
4.95839242,10042
4.96925886,9961
4.9801253,9908
4.99099174,9922
5.00185818,9826
5.01272462,9980
5.02359106,9885
5.0344575,9921
5.04532394,9827
5.05619038,9962
5.06705682,9982
5.07792326,10014
5.0887897,10184
5.09965614,9996
5.11052258,10193
5.12138902,9847
5.13225546,10146
5.1431219,10168
5.15398834,9935
5.16485478,10204
5.17572122,10176
5.18658766,10264
5.1974541,10226
5.20832054,10062
5.21918698,10218
5.23005342,10361
5.24091986,10285
5.2517863,10243
5.26265274,10048
5.27351918,10109
5.28438562,10030
5.29525206,10256
5.3061185,10283
5.31698494,10314
5.32785138,10436
5.33871782,10449
5.34958426,10695
5.3604507,10612
5.37131714,10294
5.38218358,10453
5.39305002,10499
5.40391646,10503
5.4147829,10622
5.42564934,10474
5.43651578,10692
5.44738222,10586
5.45824866,10552
5.4691151,10776
5.47998154,10820
5.49084798,10503
5.50171442,10745
5.51258086,10820
5.5234473,10623
5.53431374,10842
5.54518018,10622
5.55604662,10796
5.56691306,10770
5.5777795,11005
5.58864594,10958
5.59951238,10606
5.61037882,11029
5.62124526,10784
5.6321117,10939
5.64297814,11070
5.65384458,10866
5.66471102,11054
5.67557746,11196
5.6864439,10944
5.69731034,11150
5.70817678,11152
5.71904322,10972
5.72990966,11068
5.7407761,11277
5.75164254,11190
5.76250898,11119
5.77337542,11352
5.78424186,11485
5.7951083,11248
5.80597474,11386
5.81684118,11383
5.82770762,11559
5.83857406,11178
5.8494405,11331
5.86030694,11450
5.87117338,11514
5.88203982,11229
5.89290626,11407
5.9037727,11539
5.91463914,11664
5.92550558,11453
5.93637202,11316
5.94723846,11598
5.9581049,11655
5.96897134,11672
5.97983778,11735
5.99070422,11665
6.00157066,11763
6.0124371,11562
6.02330354,11569
6.03416998,11503
6.04503642,11594
6.05590286,11755
6.0667693,11718
6.07763574,11679
6.08850218,11851
6.09936862,11753
6.11023506,11801
6.1211015,11944
6.13196794,11895
6.14283438,11759
6.15370082,11944
6.16456726,11824
6.1754337,11943
6.18630014,11984
6.19716658,11908
6.20803302,12102
6.21889946,12018
6.2297659,12268
6.24063234,12060
6.25149878,11912
6.26236522,11987
6.27323166,12027
6.2840981,12040
6.29496454,11841
6.30583098,11913
6.31669742,11922
6.32756386,12190
6.3384303,11967
6.34929674,12234
6.36016318,11979
6.37102962,11878
6.38189606,12071
6.3927625,12300
6.40362894,12209
6.41449538,11940
6.42536182,12053
6.43622826,12116
6.4470947,12071
6.45796114,12091
6.46882758,12234
6.47969402,12130
6.49056046,11896
6.5014269,12153
6.51229334,11981
6.52315978,12252
6.53402622,12348
6.54489266,11952
6.5557591,12023
6.56662554,12081
6.57749198,12138
6.58835842,12024
6.59922486,12223
6.6100913,12070
6.62095774,11918
6.63182418,12097
6.64269062,11998
6.65355706,12126
6.6644235,12042
6.67528994,12069
6.68615638,12037
6.69702282,12190
6.70788926,12098
6.7187557,12043
6.72962214,12146
6.74048858,11856
6.75135502,12016
6.76222146,12078
6.7730879,11922
6.78395434,11886
6.79482078,12004
6.80568722,12182
6.81655366,11975
6.8274201,11998
6.83828654,11945
6.84915298,11935
6.86001942,11806
6.87088586,11764
6.8817523,12213
6.89261874,11817
6.90348518,11926
6.91435162,11766
6.92521806,11639
6.9360845,11926
6.94695094,11962
6.95781738,11587
6.96868382,11566
6.97955026,11786
6.9904167,11815
7.00128314,11780
7.01214958,11747
7.02301602,11605
7.03388246,11694
7.0447489,11469
7.05561534,11595
7.06648178,11585
7.07734822,11610
7.08821466,11559
7.0990811,11687
7.10994754,11544
7.12081398,11502
7.13168042,11322
7.14254686,11490
7.1534133,11493
7.16427974,11354
7.17514618,11494
7.18601262,11595
7.19687906,11497
7.2077455,11497
7.21861194,11610
7.22947838,11412
7.24034482,11418
7.25121126,11312
7.2620777,11424
7.27294414,11454
7.28381058,11391
7.29467702,11454
7.30554346,11264
7.3164099,11367
7.32727634,11166
7.33814278,11334
7.34900922,11234
7.35987566,11136
7.3707421,11289
7.38160854,11312
7.39247498,11157
7.40334142,11146
7.41420786,11084
7.4250743,11126
7.43594074,10907
7.44680718,11111
7.45767362,11019
7.46854006,10860
7.4794065,11084
7.49027294,10904
7.50113938,10894
7.51200582,10975
7.52287226,10866
7.5337387,10921
7.54460514,10969
7.55547158,10782
7.56633802,10748
7.57720446,10935
7.5880709,10820
7.59893734,10764
7.60980378,10835
7.62067022,10654
7.63153666,10811
7.6424031,10703
7.65326954,10758
7.66413598,10608
7.67500242,10744
7.68586886,10730
7.6967353,10614
7.70760174,10555
7.71846818,10571
7.72933462,10784
7.74020106,10543
7.7510675,10552
7.76193394,10340
7.77280038,10480
7.78366682,10422
7.79453326,10252
7.8053997,10516
7.81626614,10167
7.82713258,10269
7.83799902,10303
7.84886546,10539
7.8597319,10237
7.87059834,10157
7.88146478,10307
7.89233122,10371
7.90319766,10384
7.9140641,10040
7.92493054,10202
7.93579698,10127
7.94666342,10156
7.95752986,10397
7.9683963,10216
7.97926274,10054
7.99012918,10069
8.00099562,10110
8.01186206,10133
8.0227285,10071
8.03359494,10006
8.04446138,9881
8.05532782,9989
8.06619426,9992
8.0770607,10225
8.08792714,9875
8.09879358,9929
8.10966002,10087
8.12052646,10107
8.1313929,9867
8.14225934,10052
8.15312578,10093
8.16399222,9918
8.17485866,9745
8.1857251,9989
8.19659154,9874
8.20745798,9645
8.21832442,9689
8.22919086,9742
8.2400573,9838
8.25092374,9673
8.26179018,9723
8.27265662,9618
8.28352306,9805
8.2943895,9744
8.30525594,9787
8.31612238,9701
8.32698882,9689
8.33785526,9484
8.3487217,9726
8.35958814,9567
8.37045458,9646
8.38132102,9628
8.39218746,9596
8.4030539,9608
8.41392034,9543
8.42478678,9711
8.43565322,9465
8.44651966,9457
8.4573861,9576
8.46825254,9491
8.47911898,9616
8.48998542,9421
8.50085186,9696
8.5117183,9655
8.52258474,9357
8.53345118,9609
8.54431762,9575
8.55518406,9523
8.5660505,9453
8.57691694,9431
8.58778338,9453
8.59864982,9337
8.60951626,9486
8.6203827,9313
8.63124914,9281
8.64211558,9386
8.65298202,9374
8.66384846,9293
8.6747149,9364
8.68558134,9217
8.69644778,9385
8.70731422,9229
8.71818066,9278
8.7290471,9217
8.73991354,9272
8.75077998,9245
8.76164642,9262
8.77251286,9429
8.7833793,9179
8.79424574,9182
8.80511218,9261
8.81597862,9173
8.82684506,9197
8.8377115,9241
8.84857794,9167
8.85944438,9107
8.87031082,9243
8.88117726,9034
8.8920437,9057
8.90291014,9239
8.91377658,9143
8.92464302,9101
8.93550946,9285
8.9463759,8970
8.95724234,9153
8.96810878,9077
8.97897522,9070
8.98984166,9132
9.0007081,9212
9.01157454,9182
9.02244098,9133
9.03330742,9311
9.04417386,8989
9.0550403,9073
9.06590674,9012
9.07677318,9088
9.08763962,9215
9.09850606,9264
9.1093725,8982
9.12023894,8951
9.13110538,9004
9.14197182,8967
9.15283826,9000
9.1637047,8998
9.17457114,9045
9.18543758,8881
9.19630402,9063
9.20717046,9038
9.2180369,9111
9.22890334,8995
9.23976978,8987
9.25063622,9090
9.26150266,9000
9.2723691,8979
9.28323554,9131
9.29410198,9124
9.30496842,9065
9.31583486,9088
9.3267013,9152
9.33756774,8944
9.34843418,8910
9.35930062,8949
9.37016706,8995
9.3810335,9190
9.39189994,9099
9.40276638,8937
9.41363282,8891
9.42449926,9023
9.4353657,9106
9.44623214,9050
9.45709858,9186
9.46796502,9118
9.47883146,9248
9.4896979,9075
9.50056434,9050
9.51143078,9202
9.52229722,9332
9.53316366,9257
9.5440301,9193
9.55489654,9173
9.56576298,9253
9.57662942,9251
9.58749586,9169
9.5983623,9302
9.60922874,9042
9.62009518,9250
9.63096162,9249
9.64182806,9248
9.6526945,9352
9.66356094,9339
9.67442738,9391
9.68529382,9177
9.69616026,9401
9.7070267,9336
9.71789314,9469
9.72875958,9358
9.73962602,9312
9.75049246,9445
9.7613589,9471
9.77222534,9351
9.78309178,9477
9.79395822,9391
9.80482466,9414
9.8156911,9420
9.82655754,9373
9.83742398,9294
9.84829042,9472
9.85915686,9473
9.8700233,9419
9.88088974,9274
9.89175618,9310
9.90262262,9418
9.91348906,9435
9.9243555,9593
9.93522194,9157
9.94608838,9212
9.95695482,9180
9.96782126,9202
9.9786877,9069
9.98955414,9188
10.00042058,9129
10.01128702,8917
10.02215346,8901
10.0330199,8759
10.04388634,8849
10.05475278,8852
10.06561922,8825
10.07648566,8861
10.0873521,8822
10.09821854,8546
10.10908498,8582
10.11995142,8628
10.13081786,8569
10.1416843,8653
10.15255074,8313
10.16341718,8498
10.17428362,8506
10.18515006,8444
10.1960165,8629
10.20688294,8457
10.21774938,8564
10.22861582,8331
10.23948226,8105
10.2503487,8274
10.26121514,8344
10.27208158,8235
10.28294802,8342
10.29381446,8085
10.3046809,8154
10.31554734,8174
10.32641378,8101
10.33728022,8181
10.34814666,8078
10.3590131,8152
10.36987954,8069
10.38074598,7913
10.39161242,8063
10.40247886,8194
10.4133453,7994
10.42421174,7937
10.43507818,8058
10.44594462,8105
10.45681106,8081
10.4676775,8089
10.47854394,7997
10.48941038,7909
10.50027682,7897
10.51114326,7873
10.5220097,7870
10.53287614,8054
10.54374258,8085
10.55460902,7785
10.56547546,7901
10.5763419,7993
10.58720834,7778
10.59807478,7871
10.60894122,7788
10.61980766,7817
10.6306741,7918
10.64154054,7800
10.65240698,7799
10.66327342,7679
10.67413986,7697
10.6850063,7643
10.69587274,7671
10.70673918,7522
10.71760562,7537
10.72847206,7702
10.7393385,7635
10.75020494,7587
10.76107138,7603
10.77193782,7588
10.78280426,7575
10.7936707,7682
10.80453714,7481
10.81540358,7602
10.82627002,7561
10.83713646,7449
10.8480029,7730
10.85886934,7577
10.86973578,7582
10.88060222,7669
10.89146866,7471
10.9023351,7545
10.91320154,7470
10.92406798,7448
10.93493442,7494
10.94580086,7446
10.9566673,7313
10.96753374,7408
10.97840018,7326
10.98926662,7514
11.00013306,7512
11.0109995,7460
11.02186594,7529
11.03273238,7427
11.04359882,7369
11.05446526,7475
11.0653317,7300
11.07619814,7334
11.08706458,7410
11.09793102,7347
11.10879746,7319
11.1196639,7424
11.13053034,7222
11.14139678,7317
11.15226322,7353
11.16312966,7310
11.1739961,7263
11.18486254,7315
11.19572898,7225
11.20659542,7400
11.21746186,7592
11.2283283,7361
11.23919474,7339
11.25006118,7252
11.26092762,7294
11.27179406,7279
11.2826605,7325
11.29352694,7167
11.30439338,7155
11.31525982,7372
11.32612626,7223
11.3369927,7200
11.34785914,7267
11.35872558,7254
11.36959202,7343
11.38045846,7272
11.3913249,7331
11.40219134,7034
11.41305778,7096
11.42392422,7272
11.43479066,7176
11.4456571,7323
11.45652354,7320
11.46738998,7275
11.47825642,6948
11.48912286,7214
11.4999893,7130
11.51085574,7299
11.52172218,7089
11.53258862,7315
11.54345506,7021
11.5543215,7460
11.56518794,7280
11.57605438,7182
11.58692082,7191
11.59778726,7260
11.6086537,7258
11.61952014,7164
11.63038658,7212
11.64125302,7210
11.65211946,7213
11.6629859,7063
11.67385234,7364
11.68471878,7135
11.69558522,7180
11.70645166,7300
11.7173181,7307
11.72818454,7330
11.73905098,7157
11.74991742,7217
11.76078386,7340
11.7716503,7158
11.78251674,7289
11.79338318,7237
11.80424962,7255
11.81511606,7151
11.8259825,7276
11.83684894,7119
11.84771538,7190
11.85858182,7288
11.86944826,7262
11.8803147,7329
11.89118114,7291
11.90204758,7254
11.91291402,7180
11.92378046,7235
11.9346469,7200
11.94551334,7346
11.95637978,7276
11.96724622,7173
11.97811266,7334
11.9889791,7281
11.99984554,7317
12.01071198,7194
12.02157842,7415
12.03244486,7439
12.0433113,7409
12.05417774,7457
12.06504418,7429
12.07591062,7335
12.08677706,7346
12.0976435,7484
12.10850994,7280
12.11937638,7364
12.13024282,7439
12.14110926,7441
12.1519757,7292
12.16284214,7467
12.17370858,7568
12.18457502,7452
12.19544146,7557
12.2063079,7559
12.21717434,7535
12.22804078,7352
12.23890722,7381
12.24977366,7614
12.2606401,7477
12.27150654,7528
12.28237298,7509
12.29323942,7440
12.30410586,7475
12.3149723,7571
12.32583874,7761
12.33670518,7439
12.34757162,7707
12.35843806,7729
12.3693045,7695
12.38017094,7735
12.39103738,7741
12.40190382,7588
12.41277026,7919
12.4236367,7703
12.43450314,7697
12.44536958,7897
12.45623602,7806
12.46710246,7877
12.4779689,7868
12.48883534,7683
12.49970178,7969
12.51056822,7902
12.52143466,8113
12.5323011,7761
12.54316754,8043
12.55403398,8036
12.56490042,8011
12.57576686,8014
12.5866333,8050
12.59749974,8013
12.60836618,8182
12.61923262,8045
12.63009906,7973
12.6409655,7944
12.65183194,8195
12.66269838,8432
12.67356482,8221
12.68443126,8255
12.6952977,8263
12.70616414,8166
12.71703058,8392
12.72789702,8401
12.73876346,8390
12.7496299,8522
12.76049634,8377
12.77136278,8402
12.78222922,8563
12.79309566,8544
12.8039621,8447
12.81482854,8557
12.82569498,8627
12.83656142,8637
12.84742786,8845
12.8582943,8917
12.86916074,8886
12.88002718,8935
12.89089362,8932
12.90176006,8880
12.9126265,8980
12.92349294,8859
12.93435938,8859
12.94522582,9049
12.95609226,9168
12.9669587,9335
12.97782514,9346
12.98869158,9379
12.99955802,9389
13.01042446,9454
13.0212909,9596
13.03215734,9568
13.04302378,9597
13.05389022,9500
13.06475666,9528
13.0756231,9691
13.08648954,9841
13.09735598,9857
13.10822242,9907
13.11908886,10010
13.1299553,10123
13.14082174,10272
13.15168818,10209
13.16255462,10460
13.17342106,10609
13.1842875,10417
13.19515394,10639
13.20602038,10659
13.21688682,10964
13.22775326,10979
13.2386197,10980
13.24948614,11374
13.26035258,11202
13.27121902,11248
13.28208546,11361
13.2929519,11705
13.30381834,11697
13.31468478,11944
13.32555122,12013
13.33641766,12198
13.3472841,12273
13.35815054,12515
13.36901698,12578
13.37988342,12725
13.39074986,12956
13.4016163,13306
13.41248274,13287
13.42334918,13441
13.43421562,13572
13.44508206,14103
13.4559485,14115
13.46681494,14489
13.47768138,14671
13.48854782,15005
13.49941426,15293
13.5102807,15534
13.52114714,15883
13.53201358,15751
13.54288002,16266
13.55374646,16514
13.5646129,16882
13.57547934,17247
13.58634578,17719
13.59721222,18025
13.60807866,18413
13.6189451,19000
13.62981154,19475
13.64067798,19695
13.65154442,20315
13.66241086,20471
13.6732773,21131
13.68414374,21521
13.69501018,22272
13.70587662,22796
13.71674306,23229
13.7276095,23494
13.73847594,24362
13.74934238,24817
13.76020882,25354
13.77107526,26287
13.7819417,26833
13.79280814,27514
13.80367458,28127
13.81454102,28852
13.82540746,29460
13.8362739,30093
13.84714034,30661
13.85800678,31010
13.86887322,31398
13.87973966,32039
13.8906061,32079
13.90147254,32790
13.91233898,33190
13.92320542,33358
13.93407186,33512
13.9449383,33696
13.95580474,33840
13.96667118,33782
13.97753762,33312
13.98840406,32470
13.9992705,32034
14.01013694,31562
14.02100338,30776
14.03186982,30237
14.04273626,28969
14.0536027,27826
14.06446914,26913
14.07533558,25628
14.08620202,24668
14.09706846,23470
14.1079349,22123
14.11880134,21207
14.12966778,20247
14.14053422,19127
14.15140066,18502
14.1622671,17812
14.17313354,16675
14.18399998,16051
14.19486642,15489
14.20573286,14839
14.2165993,14382
14.22746574,13725
14.23833218,13114
14.24919862,12855
14.26006506,12468
14.2709315,11838
14.28179794,11684
14.29266438,11228
14.30353082,10925
14.31439726,10698
14.3252637,10453
14.33613014,9907
14.34699658,9977
14.35786302,9484
14.36872946,9380
14.3795959,9140
14.39046234,8994
14.40132878,8640
14.41219522,8545
14.42306166,8317
14.4339281,8222
14.44479454,8017
14.45566098,7887
14.46652742,7678
14.47739386,7521
14.4882603,7239
14.49912674,7170
14.50999318,7345
14.52085962,7032
14.53172606,6855
14.5425925,6594
14.55345894,6838
14.56432538,6583
14.57519182,6598
14.58605826,6478
14.5969247,6352
14.60779114,6449
14.61865758,6149
14.62952402,6047
14.64039046,6081
14.6512569,5923
14.66212334,5866
14.67298978,5877
14.68385622,5833
14.69472266,5726
14.7055891,5584
14.71645554,5711
14.72732198,5612
14.73818842,5637
14.74905486,5420
14.7599213,5512
14.77078774,5330
14.78165418,5504
14.79252062,5231
14.80338706,5157
14.8142535,5170
14.82511994,5136
14.83598638,5052
14.84685282,5067
14.85771926,5118
14.8685857,5066
14.87945214,5048
14.89031858,4872
14.90118502,5056
14.91205146,4930
14.9229179,4854
14.93378434,4907
14.94465078,4759
14.95551722,4684
14.96638366,4640
14.9772501,4821
14.98811654,4584
14.99898298,4589
15.00984942,4608
15.02071586,4590
15.0315823,4582
15.04244874,4518
15.05331518,4509
15.06418162,4386
15.07504806,4417
15.0859145,4399
15.09678094,4367
15.10764738,4417
15.11851382,4210
15.12938026,4336
15.1402467,4364
15.15111314,4149
15.16197958,4299
15.17284602,4257
15.18371246,4310
15.1945789,4182
15.20544534,4059
15.21631178,4340
15.22717822,4047
15.23804466,4124
15.2489111,4076
15.25977754,4031
15.27064398,4073
15.28151042,4046
15.29237686,3965
15.3032433,3927
15.31410974,4142
15.32497618,3990
15.33584262,3960
15.34670906,4044
15.3575755,3962
15.36844194,3932
15.37930838,3897
15.39017482,3903
15.40104126,3830
15.4119077,3853
15.42277414,3805
15.43364058,3764
15.44450702,3773
15.45537346,3822
15.4662399,3928
15.47710634,3679
15.48797278,3742
15.49883922,3804
15.50970566,3765
15.5205721,3711
15.53143854,3661
15.54230498,3740
15.55317142,3758
15.56403786,3654
15.5749043,3602
15.58577074,3654
15.59663718,3708
15.60750362,3615
15.61837006,3602
15.6292365,3636
15.64010294,3607
15.65096938,3668
15.66183582,3661
15.67270226,3587
15.6835687,3506
15.69443514,3639
15.70530158,3643
15.71616802,3637
15.72703446,3630
15.7379009,3463
15.74876734,3578
15.75963378,3478
15.77050022,3567
15.78136666,3431
15.7922331,3537
15.80309954,3539
15.81396598,3445
15.82483242,3617
15.83569886,3465
15.8465653,3506
15.85743174,3574
15.86829818,3598
15.87916462,3543
15.89003106,3550
15.9008975,3580
15.91176394,3441
15.92263038,3410
15.93349682,3462
15.94436326,3522
15.9552297,3498
15.96609614,3453
15.97696258,3488
15.98782902,3470
15.99869546,3451
16.0095619,3563
16.02042834,3402
16.03129478,3435
16.04216122,3463
16.05302766,3432
16.0638941,3339
16.07476054,3372
16.08562698,3317
16.09649342,3444
16.10735986,3443
16.1182263,3271
16.12909274,3366
16.13995918,3279
16.15082562,3478
16.16169206,3309
16.1725585,3391
16.18342494,3271
16.19429138,3305
16.20515782,3231
16.21602426,3266
16.2268907,3258
16.23775714,3189
16.24862358,3262
16.25949002,3227
16.27035646,3196
16.2812229,3159
16.29208934,3180
16.30295578,3166
16.31382222,3216
16.32468866,3093
16.3355551,3239
16.34642154,3232
16.35728798,3230
16.36815442,3126
16.37902086,3126
16.3898873,3131
16.40075374,3017
16.41162018,3051
16.42248662,3217
16.43335306,3142
16.4442195,3148
16.45508594,3104
16.46595238,3006
16.47681882,3119
16.48768526,3139
16.4985517,3053
16.50941814,3054
16.52028458,3028
16.53115102,3156
16.54201746,3085
16.5528839,3110
16.56375034,3087
16.57461678,3031
16.58548322,2988
16.59634966,3084
16.6072161,2994
16.61808254,3006
16.62894898,3052
16.63981542,2974
16.65068186,3041
16.6615483,2990
16.67241474,3088
16.68328118,3072
16.69414762,2959
16.70501406,3018
16.7158805,3032
16.72674694,2934
16.73761338,2906
16.74847982,2976
16.75934626,2967
16.7702127,3017
16.78107914,3021
16.79194558,2937
16.80281202,3043
16.81367846,2951
16.8245449,2957
16.83541134,2948
16.84627778,2996
16.85714422,2954
16.86801066,2951
16.8788771,2885
16.88974354,2939
16.90060998,3013
16.91147642,2894
16.92234286,2895
16.9332093,2927
16.94407574,2934
16.95494218,2956
16.96580862,2947
16.97667506,2787
16.9875415,2893
16.99840794,2870
17.00927438,2900
17.02014082,2944
17.03100726,2940
17.0418737,2883
17.05274014,2935
17.06360658,2896
17.07447302,2913
17.08533946,2940
17.0962059,2812
17.10707234,2731
17.11793878,2845
17.12880522,2877
17.13967166,2890
17.1505381,2866
17.16140454,2818
17.17227098,2926
17.18313742,2890
17.19400386,2839
17.2048703,2778
17.21573674,2817
17.22660318,2930
17.23746962,2839
17.24833606,2890
17.2592025,2849
17.27006894,2830
17.28093538,2891
17.29180182,2871
17.30266826,2920
17.3135347,2809
17.32440114,2754
17.33526758,2854
17.34613402,2888
17.35700046,2747
17.3678669,2889
17.37873334,2806
17.38959978,2869
17.40046622,2944
17.41133266,2741
17.4221991,2814
17.43306554,2785
17.44393198,2770
17.45479842,2798
17.46566486,2825
17.4765313,2860
17.48739774,2790
17.49826418,2888
17.50913062,2857
17.51999706,2728
17.5308635,2767
17.54172994,2798
17.55259638,2784
17.56346282,2758
17.57432926,2839
17.5851957,2798
17.59606214,2745
17.60692858,2754
17.61779502,2759
17.62866146,2850
17.6395279,2834
17.65039434,2729
17.66126078,2750
17.67212722,2743
17.68299366,2788
17.6938601,2846
17.70472654,2858
17.71559298,2830
17.72645942,2726
17.73732586,2729
17.7481923,2838
17.75905874,2789
17.76992518,2740
17.78079162,2783
17.79165806,2832
17.8025245,2874
17.81339094,2818
17.82425738,2816
17.83512382,2726
17.84599026,2711
17.8568567,2802
17.86772314,2813
17.87858958,2791
17.88945602,2654
17.90032246,2734
17.9111889,2838
17.92205534,2719
17.93292178,2894
17.94378822,2742
17.95465466,2801
17.9655211,2692
17.97638754,2782
17.98725398,2810
17.99812042,2792
18.00898686,2761
18.0198533,2878
18.03071974,2898
18.04158618,2842
18.05245262,2714
18.06331906,2751
18.0741855,2778
18.08505194,2641
18.09591838,2805
18.10678482,2724
18.11765126,2848
18.1285177,2785
18.13938414,2732
18.15025058,2745
18.16111702,2836
18.17198346,2809
18.1828499,2744
18.19371634,2813
18.20458278,2818
18.21544922,2665
18.22631566,2670
18.2371821,2626
18.24804854,2714
18.25891498,2714
18.26978142,2718
18.28064786,2700
18.2915143,2765
18.30238074,2736
18.31324718,2725
18.32411362,2722
18.33498006,2829
18.3458465,2730
18.35671294,2604
18.36757938,2706
18.37844582,2792
18.38931226,2849
18.4001787,2672
18.41104514,2863
18.42191158,2706
18.43277802,2711
18.44364446,2786
18.4545109,2775
18.46537734,2880
18.47624378,2762
18.48711022,2739
18.49797666,2753
18.5088431,2771
18.51970954,2775
18.53057598,2764
18.54144242,2755
18.55230886,2630
18.5631753,2761
18.57404174,2834
18.58490818,2786
18.59577462,2822
18.60664106,2700
18.6175075,2741
18.62837394,2817
18.63924038,2767
18.65010682,2763
18.66097326,2746
18.6718397,2783
18.68270614,2766
18.69357258,2735
18.70443902,2725
18.71530546,2716
18.7261719,2692
18.73703834,2836
18.74790478,2673
18.75877122,2802
18.76963766,2695
18.7805041,2827
18.79137054,2755
18.80223698,2800
18.81310342,2733
18.82396986,2663
18.8348363,2702
18.84570274,2686
18.85656918,2739
18.86743562,2661
18.87830206,2716
18.8891685,2684
18.90003494,2714
18.91090138,2715
18.92176782,2779
18.93263426,2787
18.9435007,2741
18.95436714,2774
18.96523358,2627
18.97610002,2739
18.98696646,2771
18.9978329,2835
19.00869934,2789
19.01956578,2694
19.03043222,2767
19.04129866,2709
19.0521651,2811
19.06303154,2699
19.07389798,2786
19.08476442,2747
19.09563086,2744
19.1064973,2765
19.11736374,2735
19.12823018,2667
19.13909662,2790
19.14996306,2797
19.1608295,2772
19.17169594,2678
19.18256238,2804
19.19342882,2752
19.20429526,2628
19.2151617,2869
19.22602814,2742
19.23689458,2655
19.24776102,2755
19.25862746,2756
19.2694939,2791
19.28036034,2595
19.29122678,2759
19.30209322,2729
19.31295966,2665
19.3238261,2756
19.33469254,2709
19.34555898,2775
19.35642542,2732
19.36729186,2767
19.3781583,2816
19.38902474,2844
19.39989118,2837
19.41075762,2814
19.42162406,2668
19.4324905,2865
19.44335694,2806
19.45422338,2805
19.46508982,2804
19.47595626,2785
19.4868227,2662
19.49768914,2753
19.50855558,2779
19.51942202,2720
19.53028846,2697
19.5411549,2834
19.55202134,2717
19.56288778,2769
19.57375422,2776
19.58462066,2805
19.5954871,2811
19.60635354,2690
19.61721998,2768
19.62808642,2792
19.63895286,2737
19.6498193,2747
19.66068574,2734
19.67155218,2806
19.68241862,2856
19.69328506,2815
19.7041515,2771
19.71501794,2837
19.72588438,2784
19.73675082,2729
19.74761726,2804
19.7584837,2780
19.76935014,2730
19.78021658,2818
19.79108302,2780
19.80194946,2822
19.8128159,2870
19.82368234,2772
19.83454878,2801
19.84541522,2840
19.85628166,2757
19.8671481,2813
19.87801454,2730
19.88888098,2831
19.89974742,2862
19.91061386,2871
19.9214803,2944
19.93234674,2841
19.94321318,2893
19.95407962,2855
19.96494606,2771
19.9758125,2849
19.98667894,2848
19.99754538,2860
20.00841182,2825
20.01927826,2879
20.0301447,2876
20.04101114,2888
20.05187758,2928
20.06274402,2875
20.07361046,2898
20.0844769,2898
20.09534334,2857
20.10620978,2977
20.11707622,2949
20.12794266,2967
20.1388091,2904
20.14967554,3010
20.16054198,2918
20.17140842,2913
20.18227486,2966
20.1931413,2959
20.20400774,2879
20.21487418,2969
20.22574062,3002
20.23660706,2977
20.2474735,2913
20.25833994,2839
20.26920638,2944
20.28007282,2959
20.29093926,2893
20.3018057,2954
20.31267214,2908
20.32353858,2962
20.33440502,3027
20.34527146,2971
20.3561379,2923
20.36700434,2991
20.37787078,2872
20.38873722,2869
20.39960366,2824
20.4104701,2917
20.42133654,2867
20.43220298,2838
20.44306942,2718
20.45393586,2841
20.4648023,2777
20.47566874,2831
20.48653518,2820
20.49740162,2788
20.50826806,2726
20.5191345,2834
20.53000094,2680
20.54086738,2824
20.55173382,2738
20.56260026,2735
20.5734667,2750
20.58433314,2830
20.59519958,2712
20.60606602,2764
20.61693246,2710
20.6277989,2810
20.63866534,2814
20.64953178,2706
20.66039822,2706
20.67126466,2762
20.6821311,2661
20.69299754,2710
20.70386398,2606
20.71473042,2765
20.72559686,2763
20.7364633,2708
20.74732974,2776
20.75819618,2659
20.76906262,2860
20.77992906,2730
20.7907955,2673
20.80166194,2724
20.81252838,2663
20.82339482,2707
20.83426126,2651
20.8451277,2699
20.85599414,2694
20.86686058,2676
20.87772702,2766
20.88859346,2753
20.8994599,2750
20.91032634,2765
20.92119278,2736
20.93205922,2754
20.94292566,2665
20.9537921,2715
20.96465854,2674
20.97552498,2723
20.98639142,2643
20.99725786,2622
21.0081243,2677
21.01899074,2609
21.02985718,2640
21.04072362,2528
21.05159006,2642
21.0624565,2628
21.07332294,2585
21.08418938,2618
21.09505582,2593
21.10592226,2682
21.1167887,2537
21.12765514,2600
21.13852158,2643
21.14938802,2564
21.16025446,2510
21.1711209,2536
21.18198734,2565
21.19285378,2478
21.20372022,2505
21.21458666,2587
21.2254531,2479
21.23631954,2592
21.24718598,2486
21.25805242,2460
21.26891886,2565
21.2797853,2526
21.29065174,2482
21.30151818,2522
21.31238462,2495
21.32325106,2501
21.3341175,2453
21.34498394,2448
21.35585038,2471
21.36671682,2472
21.37758326,2465
21.3884497,2475
21.39931614,2486
21.41018258,2495
21.42104902,2531
21.43191546,2506
21.4427819,2419
21.45364834,2471
21.46451478,2458
21.47538122,2574
21.48624766,2452
21.4971141,2488
21.50798054,2445
21.51884698,2404
21.52971342,2423
21.54057986,2495
21.5514463,2484
21.56231274,2400
21.57317918,2494
21.58404562,2533
21.59491206,2462
21.6057785,2301
21.61664494,2362
21.62751138,2382
21.63837782,2439
21.64924426,2453
21.6601107,2393
21.67097714,2385
21.68184358,2379
21.69271002,2420
21.70357646,2395
21.7144429,2431
21.72530934,2475
21.73617578,2459
21.74704222,2515
21.75790866,2432
21.7687751,2381
21.77964154,2355
21.79050798,2514
21.80137442,2409
21.81224086,2442
21.8231073,2507
21.83397374,2416
21.84484018,2435
21.85570662,2417
21.86657306,2436
21.8774395,2510
21.88830594,2341
21.89917238,2366
21.91003882,2475
21.92090526,2440
21.9317717,2401
21.94263814,2484
21.95350458,2395
21.96437102,2486
21.97523746,2432
21.9861039,2410
21.99697034,2444
22.00783678,2366
22.01870322,2437
22.02956966,2509
22.0404361,2391
22.05130254,2458
22.06216898,2453
22.07303542,2409
22.08390186,2435
22.0947683,2479
22.10563474,2423
22.11650118,2508
22.12736762,2464
22.13823406,2459
22.1491005,2411
22.15996694,2537
22.17083338,2478
22.18169982,2546
22.19256626,2486
22.2034327,2504
22.21429914,2542
22.22516558,2384
22.23603202,2465
22.24689846,2466
22.2577649,2477
22.26863134,2473
22.27949778,2517
22.29036422,2482
22.30123066,2544
22.3120971,2492
22.32296354,2550
22.33382998,2627
22.34469642,2563
22.35556286,2580
22.3664293,2707
22.37729574,2620
22.38816218,2659
22.39902862,2604
22.40989506,2607
22.4207615,2679
22.43162794,2585
22.44249438,2693
22.45336082,2643
22.46422726,2769
22.4750937,2712
22.48596014,2677
22.49682658,2675
22.50769302,2712
22.51855946,2688
22.5294259,2663
22.54029234,2767
22.55115878,2642
22.56202522,2829
22.57289166,2709
22.5837581,2829
22.59462454,2709
22.60549098,2832
22.61635742,2798
22.62722386,2741
22.6380903,2806
22.64895674,2924
22.65982318,2870
22.67068962,2844
22.68155606,2884
22.6924225,2873
22.70328894,2885
22.71415538,2974
22.72502182,2898
22.73588826,3017
22.7467547,2997
22.75762114,2833
22.76848758,2847
22.77935402,2804
22.79022046,2921
22.8010869,2907
22.81195334,2925
22.82281978,2905
22.83368622,2900
22.84455266,2833
22.8554191,2981
22.86628554,2856
22.87715198,2839
22.88801842,2824
22.89888486,2980
22.9097513,2781
22.92061774,2889
22.93148418,2855
22.94235062,2757
22.95321706,2847
22.9640835,2808
22.97494994,2768
22.98581638,2855
22.99668282,2814
23.00754926,2706
23.0184157,2861
23.02928214,2726
23.04014858,2782
23.05101502,2769
23.06188146,2806
23.0727479,2898
23.08361434,2825
23.09448078,2808
23.10534722,2772
23.11621366,2842
23.1270801,2764
23.13794654,2761
23.14881298,2752
23.15967942,2782
23.17054586,2813
23.1814123,2719
23.19227874,2747
23.20314518,2810
23.21401162,2796
23.22487806,2820
23.2357445,2751
23.24661094,2713
23.25747738,2646
23.26834382,2750
23.27921026,2731
23.2900767,2775
23.30094314,2624
23.31180958,2759
23.32267602,2672
23.33354246,2798
23.3444089,2777
23.35527534,2647
23.36614178,2744
23.37700822,2721
23.38787466,2717
23.3987411,2741
23.40960754,2735
23.42047398,2816
23.43134042,2582
23.44220686,2701
23.4530733,2668
23.46393974,2651
23.47480618,2716
23.48567262,2666
23.49653906,2746
23.5074055,2750
23.51827194,2678
23.52913838,2738
23.54000482,2678
23.55087126,2696
23.5617377,2832
23.57260414,2730
23.58347058,2676
23.59433702,2605
23.60520346,2686
23.6160699,2698
23.62693634,2752
23.63780278,2760
23.64866922,2695
23.65953566,2717
23.6704021,2790
23.68126854,2862
23.69213498,2770
23.70300142,2738
23.71386786,2862
23.7247343,2768
23.73560074,2794
23.74646718,2931
23.75733362,2814
23.76820006,2780
23.7790665,2991
23.78993294,2993
23.80079938,2937
23.81166582,2986
23.82253226,2981
23.8333987,3049
23.84426514,3008
23.85513158,3040
23.86599802,2939
23.87686446,2965
23.8877309,3042
23.89859734,3002
23.90946378,2932
23.92033022,2885
23.93119666,2946
23.9420631,2808
23.95292954,2836
23.96379598,2840
23.97466242,2803
23.98552886,2855
23.9963953,2804
24.00726174,2723
24.01812818,2712
24.02899462,2780
24.03986106,2710
24.0507275,2780
24.06159394,2740
24.07246038,2809
24.08332682,2827
24.09419326,2739
24.1050597,2670
24.11592614,2775
24.12679258,2705
24.13765902,2733
24.14852546,2717
24.1593919,2698
24.17025834,2656
24.18112478,2724
24.19199122,2771
24.20285766,2634
24.2137241,2794
24.22459054,2606
24.23545698,2679
24.24632342,2652
24.25718986,2693
24.2680563,2655
24.27892274,2774
24.28978918,2707
24.30065562,2654
24.31152206,2821
24.3223885,2685
24.33325494,2691
24.34412138,2700
24.35498782,2730
24.36585426,2619
24.3767207,2783
24.38758714,2712
24.39845358,2668
24.40932002,2715
24.42018646,2798
24.4310529,2791
24.44191934,2781
24.45278578,2765
24.46365222,2734
24.47451866,2786
24.4853851,2722
24.49625154,2693
24.50711798,2726
24.51798442,2674
24.52885086,2785
24.5397173,2730
24.55058374,2781
24.56145018,2792
24.57231662,2747
24.58318306,2838
24.5940495,2787
24.60491594,2668
24.61578238,2707
24.62664882,2645
24.63751526,2636
24.6483817,2745
24.65924814,2764
24.67011458,2666
24.68098102,2752
24.69184746,2653
24.7027139,2653
24.71358034,2634
24.72444678,2683
24.73531322,2770
24.74617966,2654
24.7570461,2766
24.76791254,2687
24.77877898,2771
24.78964542,2724
24.80051186,2645
24.8113783,2743
24.82224474,2657
24.83311118,2709
24.84397762,2752
24.85484406,2681
24.8657105,2767
24.87657694,2750
24.88744338,2669
24.89830982,2715
24.90917626,2830
24.9200427,2837
24.93090914,2733
24.94177558,2833
24.95264202,2802
24.96350846,2786
24.9743749,2832
24.98524134,2723
24.99610778,2811
25.00697422,2838
25.01784066,2864
25.0287071,2943
25.03957354,2913
25.05043998,2922
25.06130642,2910
25.07217286,2908
25.0830393,2910
25.09390574,2881
25.10477218,2981
25.11563862,2866
25.12650506,2907
25.1373715,2972
25.14823794,2921
25.15910438,2867
25.16997082,2929
25.18083726,3028
25.1917037,2885
25.20257014,2881
25.21343658,2922
25.22430302,2910
25.23516946,2952
25.2460359,2794
25.25690234,2846
25.26776878,2739
25.27863522,2808
25.28950166,2844
25.3003681,2821
25.31123454,2746
25.32210098,2686
25.33296742,2734
25.34383386,2807
25.3547003,2596
25.36556674,2631
25.37643318,2692
25.38729962,2656
25.39816606,2708
25.4090325,2726
25.41989894,2653
25.43076538,2654
25.44163182,2729
25.45249826,2687
25.4633647,2743
25.47423114,2664
25.48509758,2774
25.49596402,2746
25.50683046,2615
25.5176969,2814
25.52856334,2686
25.53942978,2875
25.55029622,2815
25.56116266,2656
25.5720291,2637
25.58289554,2766
25.59376198,2707
25.60462842,2727
25.61549486,2756
25.6263613,2701
25.63722774,2765
25.64809418,2719
25.65896062,2692
25.66982706,2688
25.6806935,2816
25.69155994,2843
25.70242638,2712
25.71329282,2760
25.72415926,2747
25.7350257,2854
25.74589214,2798
25.75675858,2822
25.76762502,2826
25.77849146,2842
25.7893579,2843
25.80022434,2789
25.81109078,2813
25.82195722,2825
25.83282366,2746
25.8436901,2761
25.85455654,2777
25.86542298,2771
25.87628942,2815
25.88715586,2814
25.8980223,2902
25.90888874,2841
25.91975518,2845
25.93062162,2776
25.94148806,2850
25.9523545,2810
25.96322094,2769
25.97408738,2773
25.98495382,2844
25.99582026,2766
26.0066867,2848
26.01755314,2801
26.02841958,2740
26.03928602,2786
26.05015246,2906
26.0610189,2793
26.07188534,2792
26.08275178,2853
26.09361822,2971
26.10448466,2770
26.1153511,2844
26.12621754,2665
26.13708398,2864
26.14795042,2809
26.15881686,2879
26.1696833,2706
26.18054974,2847
26.19141618,2748
26.20228262,2782
26.21314906,2813
26.2240155,2889
26.23488194,2910
26.24574838,2824
26.25661482,2859
26.26748126,2908
26.2783477,2774
26.28921414,2788
26.30008058,2880
26.31094702,2889
26.32181346,2815
26.3326799,2842
26.34354634,2876
26.35441278,2860
26.36527922,2881
26.37614566,2902
26.3870121,2941
26.39787854,2779
26.40874498,2861
26.41961142,2994
26.43047786,2932
26.4413443,2817
26.45221074,2965
26.46307718,2881
26.47394362,2980
26.48481006,2825
26.4956765,2991
26.50654294,2951
26.51740938,2935
26.52827582,2975
26.53914226,2988
26.5500087,2830
26.56087514,2798
26.57174158,3011
26.58260802,2940
26.59347446,2965
26.6043409,2997
26.61520734,3038
26.62607378,3048
26.63694022,2966
26.64780666,3001
26.6586731,2905
26.66953954,2959
26.68040598,2997
26.69127242,2913
26.70213886,2995
26.7130053,3025
26.72387174,2948
26.73473818,3057
26.74560462,3023
26.75647106,2999
26.7673375,2984
26.77820394,3023
26.78907038,2965
26.79993682,3079
26.81080326,2996
26.8216697,3100
26.83253614,2940
26.84340258,3046
26.85426902,3091
26.86513546,3058
26.8760019,3259
26.88686834,3180
26.89773478,3150
26.90860122,3153
26.91946766,3148
26.9303341,3108
26.94120054,3160
26.95206698,3163
26.96293342,3146
26.97379986,3115
26.9846663,3220
26.99553274,3194
27.00639918,3249
27.01726562,3231
27.02813206,3211
27.0389985,3175
27.04986494,3192
27.06073138,3191
27.07159782,3168
27.08246426,3136
27.0933307,3251
27.10419714,3290
27.11506358,3271
27.12593002,3298
27.13679646,3303
27.1476629,3308
27.15852934,3431
27.16939578,3415
27.18026222,3260
27.19112866,3285
27.2019951,3395
27.21286154,3356
27.22372798,3447
27.23459442,3408
27.24546086,3503
27.2563273,3497
27.26719374,3509
27.27806018,3562
27.28892662,3573
27.29979306,3546
27.3106595,3504
27.32152594,3655
27.33239238,3473
27.34325882,3566
27.35412526,3571
27.3649917,3678
27.37585814,3688
27.38672458,3754
27.39759102,3704
27.40845746,3677
27.4193239,3716
27.43019034,3744
27.44105678,3701
27.45192322,3661
27.46278966,3788
27.4736561,3707
27.48452254,3854
27.49538898,3643
27.50625542,3827
27.51712186,3910
27.5279883,3975
27.53885474,3881
27.54972118,4055
27.56058762,3919
27.57145406,3939
27.5823205,4027
27.59318694,4092
27.60405338,4229
27.61491982,4156
27.62578626,4156
27.6366527,4276
27.64751914,4195
27.65838558,4239
27.66925202,4268
27.68011846,4431
27.6909849,4384
27.70185134,4349
27.71271778,4291
27.72358422,4468
27.73445066,4521
27.7453171,4549
27.75618354,4661
27.76704998,4619
27.77791642,4708
27.78878286,4703
27.7996493,4752
27.81051574,4744
27.82138218,4902
27.83224862,4824
27.84311506,4996
27.8539815,4977
27.86484794,5041
27.87571438,5004
27.88658082,5071
27.89744726,5226
27.9083137,5424
27.91918014,5425
27.93004658,5410
27.94091302,5556
27.95177946,5662
27.9626459,5662
27.97351234,5910
27.98437878,5824
27.99524522,5904
28.00611166,5911
28.0169781,6067
28.02784454,6100
28.03871098,6213
28.04957742,6299
28.06044386,6413
28.0713103,6499
28.08217674,6676
28.09304318,6813
28.10390962,6932
28.11477606,7011
28.1256425,7062
28.13650894,7296
28.14737538,7372
28.15824182,7593
28.16910826,7690
28.1799747,7725
28.19084114,8080
28.20170758,8370
28.21257402,8570
28.22344046,8602
28.2343069,8727
28.24517334,8948
28.25603978,9214
28.26690622,9616
28.27777266,9775
28.2886391,10027
28.29950554,10363
28.31037198,10526
28.32123842,10916
28.33210486,11244
28.3429713,11536
28.35383774,11882
28.36470418,12217
28.37557062,12858
28.38643706,13327
28.3973035,13721
28.40816994,14212
28.41903638,14695
28.42990282,15196
28.44076926,15682
28.4516357,16310
28.46250214,16599
28.47336858,17214
28.48423502,18221
28.49510146,18916
28.5059679,19461
28.51683434,20292
28.52770078,20866
28.53856722,21469
28.54943366,22016
28.5603001,22482
28.57116654,23178
28.58203298,23624
28.59289942,23923
28.60376586,24203
28.6146323,24080
28.62549874,24625
28.63636518,24369
28.64723162,23962
28.65809806,23855
28.6689645,23436
28.67983094,22934
28.69069738,22385
28.70156382,21899
28.71243026,21096
28.7232967,20418
28.73416314,19897
28.74502958,19214
28.75589602,18535
28.76676246,17959
28.7776289,17191
28.78849534,16638
28.79936178,16142
28.81022822,15527
28.82109466,14981
28.8319611,14698
28.84282754,14431
28.85369398,13723
28.86456042,13547
28.87542686,12952
28.8862933,12785
28.89715974,12518
28.90802618,12109
28.91889262,11840
28.92975906,11554
28.9406255,11427
28.95149194,11212
28.96235838,11006
28.97322482,10717
28.98409126,10646
28.9949577,10222
29.00582414,10118
29.01669058,10041
29.02755702,9921
29.03842346,9664
29.0492899,9561
29.06015634,9352
29.07102278,9225
29.08188922,9258
29.09275566,9068
29.1036221,8774
29.11448854,8752
29.12535498,8594
29.13622142,8544
29.14708786,8392
29.1579543,8513
29.16882074,8076
29.17968718,8163
29.19055362,7976
29.20142006,7906
29.2122865,7780
29.22315294,7792
29.23401938,7840
29.24488582,7774
29.25575226,7508
29.2666187,7510
29.27748514,7386
29.28835158,7240
29.29921802,7195
29.31008446,7228
29.3209509,7036
29.33181734,6997
29.34268378,7095
29.35355022,6914
29.36441666,7001
29.3752831,7071
29.38614954,6957
29.39701598,6708
29.40788242,6680
29.41874886,6615
29.4296153,6464
29.44048174,6512
29.45134818,6471
29.46221462,6432
29.47308106,6543
29.4839475,6394
29.49481394,6474
29.50568038,6295
29.51654682,6159
29.52741326,6377
29.5382797,6146
29.54914614,6153
29.56001258,6186
29.57087902,6148
29.58174546,6154
29.5926119,6035
29.60347834,6014
29.61434478,6038
29.62521122,5969
29.63607766,5962
29.6469441,5901
29.65781054,5929
29.66867698,5948
29.67954342,5913
29.69040986,5971
29.7012763,5794
29.71214274,5824
29.72300918,5777
29.73387562,5810
29.74474206,5879
29.7556085,5651
29.76647494,5659
29.77734138,5753
29.78820782,5599
29.79907426,5609
29.8099407,5691
29.82080714,5654
29.83167358,5554
29.84254002,5694
29.85340646,5509
29.8642729,5667
29.87513934,5651
29.88600578,5662
29.89687222,5593
29.90773866,5505
29.9186051,5537
29.92947154,5576
29.94033798,5418
29.95120442,5478
29.96207086,5616
29.9729373,5581
29.98380374,5530
29.99467018,5435
