"Angle","Counts"
3.00243322,25343
3.01329966,24722
3.0241661,24250
3.03503254,24041
3.04589898,23491
3.05676542,23534
3.06763186,23465
3.0784983,23355
3.08936474,22690
3.10023118,22655
3.11109762,22506
3.12196406,21966
3.1328305,21695
3.14369694,21904
3.15456338,21376
3.16542982,21083
3.17629626,20869
3.1871627,20818
3.19802914,20553
3.20889558,20180
3.21976202,20300
3.23062846,19787
3.2414949,19627
3.25236134,19417
3.26322778,19226
3.27409422,19247
3.28496066,18998
3.2958271,18706
3.30669354,18458
3.31755998,18417
3.32842642,18010
3.33929286,18248
3.3501593,17718
3.36102574,17758
3.37189218,17714
3.38275862,17501
3.39362506,17115
3.4044915,17313
3.41535794,16716
3.42622438,16733
3.43709082,16528
3.44795726,16599
3.4588237,16206
3.46969014,16397
3.48055658,15871
3.49142302,16089
3.50228946,15657
3.5131559,15613
3.52402234,15389
3.53488878,15367
3.54575522,15192
3.55662166,15068
3.5674881,15073
3.57835454,14915
3.58922098,14772
3.60008742,14324
3.61095386,14234
3.6218203,14108
3.63268674,14290
3.64355318,13843
3.65441962,14093
3.66528606,13752
3.6761525,13705
3.68701894,13593
3.69788538,13398
3.70875182,13384
3.71961826,13064
3.7304847,13182
3.74135114,12963
3.75221758,13099
3.76308402,12905
3.77395046,12540
3.7848169,12535
3.79568334,12466
3.80654978,12258
3.81741622,12321
3.82828266,12102
3.8391491,12065
3.85001554,11900
3.86088198,11901
3.87174842,12033
3.88261486,11491
3.8934813,11633
3.90434774,11611
3.91521418,11356
3.92608062,11510
3.93694706,11440
3.9478135,10899
3.95867994,11042
3.96954638,10692
3.98041282,10960
3.99127926,10836
4.0021457,10890
4.01301214,10705
4.02387858,10630
4.03474502,10644
4.04561146,10188
4.0564779,10347
4.06734434,10384
4.07821078,10150
4.08907722,10176
4.09994366,10040
4.1108101,10044
4.12167654,9781
4.13254298,9780
4.14340942,9868
4.15427586,9804
4.1651423,9688
4.17600874,9635
4.18687518,9583
4.19774162,9522
4.20860806,9213
4.2194745,9470
4.23034094,9444
4.24120738,9441
4.25207382,9243
4.26294026,9243
4.2738067,9054
4.28467314,9058
4.29553958,8987
4.30640602,9031
4.31727246,8790
4.3281389,8736
4.33900534,8647
4.34987178,8665
4.36073822,8549
4.37160466,8659
4.3824711,8623
4.39333754,8417
4.40420398,8449
4.41507042,8464
4.42593686,8270
4.4368033,8429
4.44766974,8336
4.45853618,8062
4.46940262,8274
4.48026906,7942
4.4911355,8257
4.50200194,7889
4.51286838,8033
4.52373482,7714
4.53460126,7742
4.5454677,7686
4.55633414,7787
4.56720058,7795
4.57806702,7798
4.58893346,7497
4.5997999,7595
4.61066634,7597
4.62153278,7430
4.63239922,7409
4.64326566,7361
4.6541321,7321
4.66499854,7316
4.67586498,7437
4.68673142,7346
4.69759786,7247
4.7084643,7386
4.71933074,7232
4.73019718,7120
4.74106362,7128
4.75193006,7160
4.7627965,7136
4.77366294,7169
4.78452938,7115
4.79539582,7013
4.80626226,7078
4.8171287,6912
4.82799514,6957
4.83886158,7072
4.84972802,6880
4.86059446,6876
4.8714609,6870
4.88232734,6807
4.89319378,6686
4.90406022,6920
4.91492666,6739
4.9257931,6600
4.93665954,6737
4.94752598,6567
4.95839242,6592
4.96925886,6483
4.9801253,6805
4.99099174,6541
5.00185818,6563
5.01272462,6513
5.02359106,6614
5.0344575,6540
5.04532394,6507
5.05619038,6390
5.06705682,6516
5.07792326,6476
5.0887897,6434
5.09965614,6471
5.11052258,6434
5.12138902,6336
5.13225546,6209
5.1431219,6285
5.15398834,6295
5.16485478,6399
5.17572122,6345
5.18658766,6242
5.1974541,6258
5.20832054,6234
5.21918698,6334
5.23005342,6231
5.24091986,6270
5.2517863,6153
5.26265274,6241
5.27351918,6121
5.28438562,6121
5.29525206,6051
5.3061185,6190
5.31698494,6050
5.32785138,6134
5.33871782,6239
5.34958426,6154
5.3604507,5994
5.37131714,6034
5.38218358,5971
5.39305002,6084
5.40391646,5992
5.4147829,6003
5.42564934,5951
5.43651578,5895
5.44738222,6102
5.45824866,5941
5.4691151,5890
5.47998154,5984
5.49084798,6115
5.50171442,5988
5.51258086,6040
5.5234473,6090
5.53431374,6140
5.54518018,5870
5.55604662,5921
5.56691306,5789
5.5777795,5849
5.58864594,5968
5.59951238,6104
5.61037882,5740
5.62124526,5934
5.6321117,5862
5.64297814,5962
5.65384458,5881
5.66471102,5861
5.67557746,5723
5.6864439,5951
5.69731034,5849
5.70817678,5978
5.71904322,5865
5.72990966,5845
5.7407761,5958
5.75164254,5976
5.76250898,5930
5.77337542,5920
5.78424186,5866
5.7951083,5925
5.80597474,5934
5.81684118,5923
5.82770762,5742
5.83857406,5786
5.8494405,5907
5.86030694,5959
5.87117338,5894
5.88203982,5986
5.89290626,5780
5.9037727,5936
5.91463914,5917
5.92550558,6107
5.93637202,5933
5.94723846,5915
5.9581049,5904
5.96897134,5882
5.97983778,5841
5.99070422,5937
6.00157066,5863
6.0124371,5663
6.02330354,5866
6.03416998,5736
6.04503642,5742
6.05590286,5957
6.0667693,5999
6.07763574,5978
6.08850218,5956
6.09936862,6011
6.11023506,5925
6.1211015,5919
6.13196794,5815
6.14283438,6153
6.15370082,6051
6.16456726,5945
6.1754337,5983
6.18630014,6003
6.19716658,6146
6.20803302,6079
6.21889946,5912
6.2297659,6011
6.24063234,6013
6.25149878,5984
6.26236522,5940
6.27323166,6066
6.2840981,5799
6.29496454,6019
6.30583098,6055
6.31669742,6001
6.32756386,6099
6.3384303,6055
6.34929674,6106
6.36016318,5895
6.37102962,6089
6.38189606,6002
6.3927625,5948
6.40362894,5957
6.41449538,5995
6.42536182,6049
6.43622826,6164
6.4470947,6011
6.45796114,6153
6.46882758,6126
6.47969402,6013
6.49056046,6107
6.5014269,6037
6.51229334,6106
6.52315978,5936
6.53402622,5904
6.54489266,6060
6.5557591,6148
6.56662554,6069
6.57749198,5970
6.58835842,5936
6.59922486,5930
6.6100913,6005
6.62095774,6164
6.63182418,5987
6.64269062,6110
6.65355706,6087
6.6644235,6133
6.67528994,6122
6.68615638,5968
6.69702282,6194
6.70788926,5993
6.7187557,6222
6.72962214,5973
6.74048858,6197
6.75135502,6150
6.76222146,6176
6.7730879,6122
6.78395434,6168
6.79482078,6137
6.80568722,6149
6.81655366,6256
6.8274201,6177
6.83828654,6031
6.84915298,6267
6.86001942,6112
6.87088586,6162
6.8817523,6132
6.89261874,6040
6.90348518,6144
6.91435162,6149
6.92521806,6208
6.9360845,6254
6.94695094,6317
6.95781738,6229
6.96868382,6426
6.97955026,6169
6.9904167,6132
7.00128314,6149
7.01214958,6244
7.02301602,6156
7.03388246,6117
7.0447489,6162
7.05561534,6242
7.06648178,6122
7.07734822,6108
7.08821466,6170
7.0990811,6313
7.10994754,6213
7.12081398,6053
7.13168042,6256
7.14254686,6347
7.1534133,6390
7.16427974,6175
7.17514618,6145
7.18601262,6193
7.19687906,6163
7.2077455,6277
7.21861194,6366
7.22947838,6274
7.24034482,6310
7.25121126,6259
7.2620777,6366
7.27294414,6281
7.28381058,6303
7.29467702,6449
7.30554346,6383
7.3164099,6188
7.32727634,6290
7.33814278,6291
7.34900922,6495
7.35987566,6432
7.3707421,6365
7.38160854,6345
7.39247498,6390
7.40334142,6365
7.41420786,6440
7.4250743,6294
7.43594074,6560
7.44680718,6297
7.45767362,6419
7.46854006,6351
7.4794065,6450
7.49027294,6423
7.50113938,6481
7.51200582,6526
7.52287226,6408
7.5337387,6498
7.54460514,6253
7.55547158,6422
7.56633802,6525
7.57720446,6315
7.5880709,6339
7.59893734,6310
7.60980378,6496
7.62067022,6391
7.63153666,6496
7.6424031,6492
7.65326954,6536
7.66413598,6447
7.67500242,6536
7.68586886,6499
7.6967353,6600
7.70760174,6396
7.71846818,6424
7.72933462,6483
7.74020106,6349
7.7510675,6344
7.76193394,6515
7.77280038,6522
7.78366682,6539
7.79453326,6509
7.8053997,6613
7.81626614,6723
7.82713258,6631
7.83799902,6686
7.84886546,6467
7.8597319,6611
7.87059834,6629
7.88146478,6508
7.89233122,6449
7.90319766,6601
7.9140641,6412
7.92493054,6382
7.93579698,6615
7.94666342,6592
7.95752986,6655
7.9683963,6720
7.97926274,6474
7.99012918,6447
8.00099562,6654
8.01186206,6519
8.0227285,6520
8.03359494,6498
8.04446138,6660
8.05532782,6486
8.06619426,6646
8.0770607,6540
8.08792714,6587
8.09879358,6649
8.10966002,6639
8.12052646,6582
8.1313929,6551
8.14225934,6582
8.15312578,6569
8.16399222,6665
8.17485866,6547
8.1857251,6561
8.19659154,6542
8.20745798,6507
8.21832442,6589
8.22919086,6624
8.2400573,6697
8.25092374,6672
8.26179018,6630
8.27265662,6609
8.28352306,6606
8.2943895,6695
8.30525594,6605
8.31612238,6729
8.32698882,6629
8.33785526,6735
8.3487217,6630
8.35958814,6701
8.37045458,6618
8.38132102,6811
8.39218746,6546
8.4030539,6738
8.41392034,6671
8.42478678,6857
8.43565322,6587
8.44651966,6518
8.4573861,6589
8.46825254,6528
8.47911898,6645
8.48998542,6534
8.50085186,6662
8.5117183,6676
8.52258474,6745
8.53345118,6642
8.54431762,6600
8.55518406,6560
8.5660505,6778
8.57691694,6583
8.58778338,6799
8.59864982,6552
8.60951626,6723
8.6203827,6560
8.63124914,6787
8.64211558,6754
8.65298202,6713
8.66384846,6766
8.6747149,6702
8.68558134,6767
8.69644778,6702
8.70731422,6661
8.71818066,6598
8.7290471,6854
8.73991354,6754
8.75077998,6706
8.76164642,6924
8.77251286,6621
8.7833793,6767
8.79424574,6741
8.80511218,6737
8.81597862,6574
8.82684506,6664
8.8377115,6838
8.84857794,6628
8.85944438,6840
8.87031082,6689
8.88117726,6756
8.8920437,6629
8.90291014,6834
8.91377658,6592
8.92464302,6895
8.93550946,6764
8.9463759,6743
8.95724234,6790
8.96810878,6731
8.97897522,6819
8.98984166,6712
9.0007081,6795
9.01157454,6670
9.02244098,6811
9.03330742,6636
9.04417386,6949
9.0550403,6729
9.06590674,6712
9.07677318,6682
9.08763962,6675
9.09850606,6767
9.1093725,6814
9.12023894,6646
9.13110538,6592
9.14197182,6982
9.15283826,6803
9.1637047,6633
9.17457114,6887
9.18543758,6826
9.19630402,6775
9.20717046,6788
9.2180369,6729
9.22890334,6782
9.23976978,6838
9.25063622,6846
9.26150266,6827
9.2723691,6854
9.28323554,7014
9.29410198,6901
9.30496842,6968
9.31583486,6992
9.3267013,7040
9.33756774,6974
9.34843418,6853
9.35930062,7139
9.37016706,6987
9.3810335,6899
9.39189994,7037
9.40276638,6978
9.41363282,7076
9.42449926,7025
9.4353657,7023
9.44623214,7081
9.45709858,7113
9.46796502,7030
9.47883146,7200
9.4896979,7100
9.50056434,7050
9.51143078,7290
9.52229722,7216
9.53316366,7326
9.5440301,7197
9.55489654,7181
9.56576298,7176
9.57662942,7212
9.58749586,7211
9.5983623,7326
9.60922874,7234
9.62009518,7283
9.63096162,7350
9.64182806,7307
9.6526945,7425
9.66356094,7549
9.67442738,7530
9.68529382,7430
9.69616026,7567
9.7070267,7447
9.71789314,7658
9.72875958,7589
9.73962602,7430
9.75049246,7567
9.7613589,7827
9.77222534,7821
9.78309178,7905
9.79395822,7735
9.80482466,7727
9.8156911,8054
9.82655754,7964
9.83742398,7884
9.84829042,7926
9.85915686,7860
9.8700233,7919
9.88088974,7937
9.89175618,7852
9.90262262,7597
9.91348906,7640
9.9243555,7685
9.93522194,7556
9.94608838,7650
9.95695482,7570
9.96782126,7563
9.9786877,7518
9.98955414,7322
10.00042058,7364
10.01128702,7359
10.02215346,7228
10.0330199,7249
10.04388634,7071
10.05475278,7205
10.06561922,7133
10.07648566,7102
10.0873521,6951
10.09821854,6961
10.10908498,6837
10.11995142,6730
10.13081786,6912
10.1416843,6770
10.15255074,6554
10.16341718,6748
10.17428362,6813
10.18515006,6756
10.1960165,6796
10.20688294,6681
10.21774938,6606
10.22861582,6739
10.23948226,6618
10.2503487,6593
10.26121514,6626
10.27208158,6605
10.28294802,6533
10.29381446,6567
10.3046809,6586
10.31554734,6539
10.32641378,6598
10.33728022,6547
10.34814666,6455
10.3590131,6578
10.36987954,6552
10.38074598,6432
10.39161242,6453
10.40247886,6472
10.4133453,6449
10.42421174,6414
10.43507818,6287
10.44594462,6561
10.45681106,6543
10.4676775,6407
10.47854394,6397
10.48941038,6400
10.50027682,6344
10.51114326,6426
10.5220097,6422
10.53287614,6421
10.54374258,6343
10.55460902,6181
10.56547546,6422
10.5763419,6423
10.58720834,6408
10.59807478,6480
10.60894122,6269
10.61980766,6358
10.6306741,6467
10.64154054,6300
10.65240698,6228
10.66327342,6160
10.67413986,6198
10.6850063,6229
10.69587274,6109
10.70673918,6214
10.71760562,6062
10.72847206,6262
10.7393385,6117
10.75020494,6201
10.76107138,6281
10.77193782,6083
10.78280426,6163
10.7936707,6059
10.80453714,6061
10.81540358,6210
10.82627002,6142
10.83713646,6056
10.8480029,6216
10.85886934,6121
10.86973578,5981
10.88060222,6284
10.89146866,6077
10.9023351,6092
10.91320154,6143
10.92406798,6036
10.93493442,5925
10.94580086,5868
10.9566673,6029
10.96753374,5993
10.97840018,6035
10.98926662,5994
11.00013306,6001
11.0109995,6023
11.02186594,6045
11.03273238,6077
11.04359882,5932
11.05446526,6113
11.0653317,5996
11.07619814,6028
11.08706458,6006
11.09793102,6006
11.10879746,5911
11.1196639,6022
11.13053034,5910
11.14139678,6039
11.15226322,6064
11.16312966,5951
11.1739961,6029
11.18486254,6004
11.19572898,6003
11.20659542,6109
11.21746186,5987
11.2283283,5913
11.23919474,5775
11.25006118,5875
11.26092762,5958
11.27179406,5945
11.2826605,6032
11.29352694,5819
11.30439338,6048
11.31525982,6013
11.32612626,5958
11.3369927,5893
11.34785914,5752
11.35872558,5801
11.36959202,5810
11.38045846,5915
11.3913249,6018
11.40219134,5992
11.41305778,5905
11.42392422,5824
11.43479066,6039
11.4456571,5942
11.45652354,5944
11.46738998,6070
11.47825642,5874
11.48912286,5915
11.4999893,5963
11.51085574,5980
11.52172218,5864
11.53258862,5933
11.54345506,5782
11.5543215,5798
11.56518794,5790
11.57605438,5896
11.58692082,5853
11.59778726,5829
11.6086537,5817
11.61952014,5790
11.63038658,5772
11.64125302,5927
11.65211946,5860
11.6629859,5817
11.67385234,5687
11.68471878,5739
11.69558522,5849
11.70645166,5981
11.7173181,5988
11.72818454,5918
11.73905098,5883
11.74991742,5906
11.76078386,5893
11.7716503,5951
11.78251674,5893
11.79338318,5823
11.80424962,5990
11.81511606,5955
11.8259825,6034
11.83684894,5868
11.84771538,5950
11.85858182,5976
11.86944826,5911
11.8803147,5770
11.89118114,5906
11.90204758,5884
11.91291402,5900
11.92378046,5870
11.9346469,6002
11.94551334,5829
11.95637978,5993
11.96724622,5785
11.97811266,5780
11.9889791,5917
11.99984554,5901
12.01071198,5958
12.02157842,5954
12.03244486,5834
12.0433113,5890
12.05417774,5953
12.06504418,5908
12.07591062,5860
12.08677706,5908
12.0976435,6012
12.10850994,5874
12.11937638,5955
12.13024282,5874
12.14110926,6033
12.1519757,6028
12.16284214,5953
12.17370858,5721
12.18457502,6031
12.19544146,5972
12.2063079,6010
12.21717434,6027
12.22804078,5993
12.23890722,5925
12.24977366,5974
12.2606401,6097
12.27150654,6138
12.28237298,6043
12.29323942,5991
12.30410586,6089
12.3149723,6086
12.32583874,6106
12.33670518,6189
12.34757162,6244
12.35843806,6003
12.3693045,6168
12.38017094,6047
12.39103738,6183
12.40190382,6024
12.41277026,6217
12.4236367,6171
12.43450314,6176
12.44536958,6053
12.45623602,6194
12.46710246,6269
12.4779689,6262
12.48883534,6270
12.49970178,6177
12.51056822,6116
12.52143466,6324
12.5323011,6041
12.54316754,6263
12.55403398,6378
12.56490042,6258
12.57576686,6345
12.5866333,6324
12.59749974,6182
12.60836618,6476
12.61923262,6501
12.63009906,6424
12.6409655,6514
12.65183194,6372
12.66269838,6353
12.67356482,6293
12.68443126,6517
12.6952977,6390
12.70616414,6450
12.71703058,6469
12.72789702,6593
12.73876346,6427
12.7496299,6578
12.76049634,6496
12.77136278,6573
12.78222922,6453
12.79309566,6514
12.8039621,6596
12.81482854,6507
12.82569498,6814
12.83656142,6555
12.84742786,6445
12.8582943,6746
12.86916074,6737
12.88002718,6669
12.89089362,6801
12.90176006,6800
12.9126265,6799
12.92349294,6770
12.93435938,6913
12.94522582,6789
12.95609226,6982
12.9669587,7036
12.97782514,6871
12.98869158,7099
12.99955802,6972
13.01042446,7096
13.0212909,7076
13.03215734,7092
13.04302378,7280
13.05389022,7282
13.06475666,7386
13.0756231,7296
13.08648954,7404
13.09735598,7288
13.10822242,7459
13.11908886,7593
13.1299553,7486
13.14082174,7532
13.15168818,7679
13.16255462,7639
13.17342106,7786
13.1842875,7745
13.19515394,7806
13.20602038,7991
13.21688682,7846
13.22775326,8079
13.2386197,8100
13.24948614,8121
13.26035258,8264
13.27121902,8401
13.28208546,8397
13.2929519,8468
13.30381834,8555
13.31468478,8692
13.32555122,8865
13.33641766,8829
13.3472841,8799
13.35815054,8966
13.36901698,9168
13.37988342,9179
13.39074986,9381
13.4016163,9625
13.41248274,9579
13.42334918,10010
13.43421562,9812
13.44508206,10222
13.4559485,10123
13.46681494,10635
13.47768138,10513
13.48854782,10749
13.49941426,10982
13.5102807,11104
13.52114714,11312
13.53201358,11412
13.54288002,12065
13.55374646,12157
13.5646129,12341
13.57547934,12725
13.58634578,12998
13.59721222,13266
13.60807866,13705
13.6189451,14141
13.62981154,14291
13.64067798,14789
13.65154442,14989
13.66241086,15632
13.6732773,15956
13.68414374,16581
13.69501018,16796
13.70587662,17281
13.71674306,17756
13.7276095,18430
13.73847594,18586
13.74934238,19370
13.76020882,20215
13.77107526,20273
13.7819417,21265
13.79280814,21756
13.80367458,22383
13.81454102,23287
13.82540746,23432
13.8362739,24007
13.84714034,24935
13.85800678,25277
13.86887322,26447
13.87973966,26726
13.8906061,27132
13.90147254,27755
13.91233898,28087
13.92320542,28765
13.93407186,28916
13.9449383,29430
13.95580474,29078
13.96667118,29708
13.97753762,29511
13.98840406,29071
13.9992705,28862
14.01013694,28247
14.02100338,27396
14.03186982,26507
14.04273626,25568
14.0536027,24241
14.06446914,23032
14.07533558,22021
14.08620202,20388
14.09706846,19481
14.1079349,18171
14.11880134,16982
14.12966778,16130
14.14053422,15474
14.15140066,14626
14.1622671,14026
14.17313354,13291
14.18399998,12825
14.19486642,12115
14.20573286,11500
14.2165993,10815
14.22746574,10663
14.23833218,10108
14.24919862,9827
14.26006506,9557
14.2709315,9212
14.28179794,8822
14.29266438,8740
14.30353082,8532
14.31439726,8275
14.3252637,7955
14.33613014,7635
14.34699658,7689
14.35786302,7425
14.36872946,7220
14.3795959,7099
14.39046234,6899
14.40132878,6879
14.41219522,6681
14.42306166,6500
14.4339281,6473
14.44479454,6220
14.45566098,6240
14.46652742,6167
14.47739386,6098
14.4882603,5917
14.49912674,5910
14.50999318,5817
14.52085962,5675
14.53172606,5560
14.5425925,5497
14.55345894,5458
14.56432538,5333
14.57519182,5300
14.58605826,5314
14.5969247,5078
14.60779114,5085
14.61865758,5149
14.62952402,5027
14.64039046,4969
14.6512569,4899
14.66212334,4920
14.67298978,4865
14.68385622,4831
14.69472266,4652
14.7055891,4741
14.71645554,4735
14.72732198,4631
14.73818842,4529
14.74905486,4524
14.7599213,4622
14.77078774,4476
14.78165418,4299
14.79252062,4361
14.80338706,4437
14.8142535,4253
14.82511994,4312
14.83598638,4405
14.84685282,4262
14.85771926,4168
14.8685857,4259
14.87945214,4151
14.89031858,4103
14.90118502,4167
14.91205146,4144
14.9229179,4043
14.93378434,4086
14.94465078,4147
14.95551722,4094
14.96638366,3959
14.9772501,4020
14.98811654,3902
14.99898298,4067
15.00984942,3882
15.02071586,3895
15.0315823,3941
15.04244874,3784
15.05331518,3883
15.06418162,3728
15.07504806,3849
15.0859145,3771
15.09678094,3803
15.10764738,3728
15.11851382,3567
15.12938026,3906
15.1402467,3603
15.15111314,3726
15.16197958,3620
15.17284602,3570
15.18371246,3631
15.1945789,3735
15.20544534,3727
15.21631178,3567
15.22717822,3644
15.23804466,3519
15.2489111,3560
15.25977754,3666
15.27064398,3554
15.28151042,3609
15.29237686,3534
15.3032433,3532
15.31410974,3589
15.32497618,3538
15.33584262,3438
15.34670906,3526
15.3575755,3601
15.36844194,3480
15.37930838,3454
15.39017482,3424
15.40104126,3464
15.4119077,3416
15.42277414,3423
15.43364058,3412
15.44450702,3371
15.45537346,3266
15.4662399,3387
15.47710634,3412
15.48797278,3281
15.49883922,3360
15.50970566,3232
15.5205721,3307
15.53143854,3350
15.54230498,3385
15.55317142,3351
15.56403786,3251
15.5749043,3300
15.58577074,3313
15.59663718,3380
15.60750362,3267
15.61837006,3314
15.6292365,3240
15.64010294,3319
15.65096938,3302
15.66183582,3201
15.67270226,3298
15.6835687,3194
15.69443514,3237
15.70530158,3225
15.71616802,3080
15.72703446,3178
15.7379009,3211
15.74876734,3275
15.75963378,3192
15.77050022,3204
15.78136666,3194
15.7922331,3156
15.80309954,3105
15.81396598,3208
15.82483242,3161
15.83569886,3176
15.8465653,3076
15.85743174,3033
15.86829818,3171
15.87916462,3143
15.89003106,3131
15.9008975,3059
15.91176394,3127
15.92263038,3072
15.93349682,3000
15.94436326,3115
15.9552297,3163
15.96609614,3126
15.97696258,2959
15.98782902,2902
15.99869546,3041
16.0095619,3125
16.02042834,3145
16.03129478,3137
16.04216122,3123
16.05302766,3076
16.0638941,3103
16.07476054,3006
16.08562698,3070
16.09649342,3050
16.10735986,3164
16.1182263,2920
16.12909274,3003
16.13995918,2968
16.15082562,3063
16.16169206,2953
16.1725585,3037
16.18342494,3099
16.19429138,3001
16.20515782,2969
16.21602426,2964
16.2268907,2980
16.23775714,2945
16.24862358,2900
16.25949002,2963
16.27035646,2953
16.2812229,3016
16.29208934,2949
16.30295578,2962
16.31382222,2995
16.32468866,3014
16.3355551,2898
16.34642154,2898
16.35728798,2993
16.36815442,2924
16.37902086,2886
16.3898873,2977
16.40075374,2904
16.41162018,2829
16.42248662,2888
16.43335306,2877
16.4442195,3010
16.45508594,2806
16.46595238,2929
16.47681882,2936
16.48768526,2782
16.4985517,2928
16.50941814,2808
16.52028458,2932
16.53115102,2773
16.54201746,2855
16.5528839,2783
16.56375034,2838
16.57461678,2929
16.58548322,2864
16.59634966,2897
16.6072161,2910
16.61808254,2883
16.62894898,2951
16.63981542,2813
16.65068186,2854
16.6615483,2749
16.67241474,2740
16.68328118,2709
16.69414762,2753
16.70501406,2905
16.7158805,2779
16.72674694,2827
16.73761338,2842
16.74847982,2938
16.75934626,2768
16.7702127,2798
16.78107914,2867
16.79194558,2750
16.80281202,2749
16.81367846,2831
16.8245449,2806
16.83541134,2740
16.84627778,2774
16.85714422,2827
16.86801066,2715
16.8788771,2739
16.88974354,2853
16.90060998,2767
16.91147642,2850
16.92234286,2817
16.9332093,2761
16.94407574,2802
16.95494218,2821
16.96580862,2778
16.97667506,2851
16.9875415,2691
16.99840794,2730
17.00927438,2725
17.02014082,2826
17.03100726,2828
17.0418737,2691
17.05274014,2724
17.06360658,2774
17.07447302,2685
17.08533946,2809
17.0962059,2713
17.10707234,2738
17.11793878,2747
17.12880522,2694
17.13967166,2742
17.1505381,2728
17.16140454,2654
17.17227098,2749
17.18313742,2692
17.19400386,2687
17.2048703,2665
17.21573674,2639
17.22660318,2678
17.23746962,2698
17.24833606,2585
17.2592025,2694
17.27006894,2728
17.28093538,2683
17.29180182,2623
17.30266826,2785
17.3135347,2731
17.32440114,2746
17.33526758,2684
17.34613402,2686
17.35700046,2677
17.3678669,2668
17.37873334,2631
17.38959978,2592
17.40046622,2698
17.41133266,2653
17.4221991,2607
17.43306554,2642
17.44393198,2658
17.45479842,2742
17.46566486,2609
17.4765313,2650
17.48739774,2635
17.49826418,2562
17.50913062,2681
17.51999706,2616
17.5308635,2592
17.54172994,2705
17.55259638,2550
17.56346282,2637
17.57432926,2640
17.5851957,2602
17.59606214,2691
17.60692858,2614
17.61779502,2570
17.62866146,2644
17.6395279,2556
17.65039434,2547
17.66126078,2641
17.67212722,2554
17.68299366,2683
17.6938601,2646
17.70472654,2642
17.71559298,2615
17.72645942,2674
17.73732586,2605
17.7481923,2606
17.75905874,2524
17.76992518,2702
17.78079162,2627
17.79165806,2659
17.8025245,2640
17.81339094,2736
17.82425738,2617
17.83512382,2701
17.84599026,2671
17.8568567,2571
17.86772314,2601
17.87858958,2642
17.88945602,2618
17.90032246,2569
17.9111889,2558
17.92205534,2623
17.93292178,2603
17.94378822,2580
17.95465466,2545
17.9655211,2551
17.97638754,2633
17.98725398,2580
17.99812042,2675
18.00898686,2581
18.0198533,2681
18.03071974,2695
18.04158618,2646
18.05245262,2512
18.06331906,2624
18.0741855,2577
18.08505194,2546
18.09591838,2534
18.10678482,2652
18.11765126,2575
18.1285177,2525
18.13938414,2582
18.15025058,2615
18.16111702,2555
18.17198346,2569
18.1828499,2677
18.19371634,2578
18.20458278,2634
18.21544922,2523
18.22631566,2537
18.2371821,2496
18.24804854,2518
18.25891498,2558
18.26978142,2650
18.28064786,2651
18.2915143,2597
18.30238074,2504
18.31324718,2608
18.32411362,2574
18.33498006,2572
18.3458465,2525
18.35671294,2568
18.36757938,2547
18.37844582,2521
18.38931226,2590
18.4001787,2479
18.41104514,2598
18.42191158,2572
18.43277802,2520
18.44364446,2479
18.4545109,2556
18.46537734,2667
18.47624378,2503
18.48711022,2545
18.49797666,2605
18.5088431,2535
18.51970954,2509
18.53057598,2589
18.54144242,2549
18.55230886,2563
18.5631753,2549
18.57404174,2578
18.58490818,2501
18.59577462,2561
18.60664106,2612
18.6175075,2487
18.62837394,2548
18.63924038,2451
18.65010682,2554
18.66097326,2492
18.6718397,2591
18.68270614,2551
18.69357258,2593
18.70443902,2545
18.71530546,2632
18.7261719,2635
18.73703834,2542
18.74790478,2562
18.75877122,2458
18.76963766,2512
18.7805041,2543
18.79137054,2572
18.80223698,2588
18.81310342,2555
18.82396986,2506
18.8348363,2531
18.84570274,2482
18.85656918,2618
18.86743562,2619
18.87830206,2547
18.8891685,2657
18.90003494,2513
18.91090138,2461
18.92176782,2470
18.93263426,2574
18.9435007,2556
18.95436714,2528
18.96523358,2548
18.97610002,2575
18.98696646,2607
18.9978329,2529
19.00869934,2474
19.01956578,2501
19.03043222,2553
19.04129866,2480
19.0521651,2559
19.06303154,2540
19.07389798,2527
19.08476442,2553
19.09563086,2468
19.1064973,2467
19.11736374,2432
19.12823018,2423
19.13909662,2424
19.14996306,2571
19.1608295,2466
19.17169594,2486
19.18256238,2543
19.19342882,2429
19.20429526,2549
19.2151617,2471
19.22602814,2487
19.23689458,2472
19.24776102,2517
19.25862746,2575
19.2694939,2528
19.28036034,2572
19.29122678,2557
19.30209322,2542
19.31295966,2596
19.3238261,2500
19.33469254,2537
19.34555898,2554
19.35642542,2509
19.36729186,2506
19.3781583,2501
19.38902474,2527
19.39989118,2506
19.41075762,2599
19.42162406,2495
19.4324905,2615
19.44335694,2470
19.45422338,2591
19.46508982,2591
19.47595626,2579
19.4868227,2571
19.49768914,2487
19.50855558,2590
19.51942202,2544
19.53028846,2522
19.5411549,2591
19.55202134,2598
19.56288778,2494
19.57375422,2535
19.58462066,2563
19.5954871,2563
19.60635354,2469
19.61721998,2586
19.62808642,2538
19.63895286,2439
19.6498193,2595
19.66068574,2578
19.67155218,2593
19.68241862,2565
19.69328506,2679
19.7041515,2582
19.71501794,2614
19.72588438,2612
19.73675082,2607
19.74761726,2583
19.7584837,2660
19.76935014,2581
19.78021658,2525
19.79108302,2551
19.80194946,2570
19.8128159,2621
19.82368234,2599
19.83454878,2510
19.84541522,2555
19.85628166,2543
19.8671481,2632
19.87801454,2557
19.88888098,2647
19.89974742,2602
19.91061386,2574
19.9214803,2614
19.93234674,2554
19.94321318,2647
19.95407962,2509
19.96494606,2523
19.9758125,2668
19.98667894,2607
19.99754538,2664
20.00841182,2648
20.01927826,2780
20.0301447,2656
20.04101114,2755
20.05187758,2701
20.06274402,2768
20.07361046,2804
20.0844769,2750
20.09534334,2750
20.10620978,2754
20.11707622,2829
20.12794266,2780
20.1388091,2737
20.14967554,2907
20.16054198,2816
20.17140842,2906
20.18227486,2905
20.1931413,2866
20.20400774,2923
20.21487418,2797
20.22574062,2807
20.23660706,2904
20.2474735,2876
20.25833994,2914
20.26920638,2991
20.28007282,2895
20.29093926,2845
20.3018057,2916
20.31267214,2965
20.32353858,2940
20.33440502,2807
20.34527146,3043
20.3561379,2941
20.36700434,2869
20.37787078,2772
20.38873722,2753
20.39960366,2690
20.4104701,2772
20.42133654,2718
20.43220298,2737
20.44306942,2713
20.45393586,2666
20.4648023,2607
20.47566874,2678
20.48653518,2609
20.49740162,2700
20.50826806,2643
20.5191345,2677
20.53000094,2770
20.54086738,2751
20.55173382,2500
20.56260026,2636
20.5734667,2586
20.58433314,2675
20.59519958,2566
20.60606602,2581
20.61693246,2500
20.6277989,2640
20.63866534,2690
20.64953178,2605
20.66039822,2602
20.67126466,2609
20.6821311,2606
20.69299754,2477
20.70386398,2612
20.71473042,2557
20.72559686,2614
20.7364633,2548
20.74732974,2588
20.75819618,2517
20.76906262,2558
20.77992906,2614
20.7907955,2536
20.80166194,2426
20.81252838,2475
20.82339482,2476
20.83426126,2374
20.8451277,2513
20.85599414,2490
20.86686058,2487
20.87772702,2475
20.88859346,2496
20.8994599,2502
20.91032634,2451
20.92119278,2458
20.93205922,2472
20.94292566,2556
20.9537921,2463
20.96465854,2466
20.97552498,2407
20.98639142,2501
20.99725786,2557
21.0081243,2480
21.01899074,2465
21.02985718,2528
21.04072362,2497
21.05159006,2490
21.0624565,2478
21.07332294,2463
21.08418938,2534
21.09505582,2515
21.10592226,2473
21.1167887,2433
21.12765514,2441
21.13852158,2486
21.14938802,2530
21.16025446,2403
21.1711209,2520
21.18198734,2431
21.19285378,2524
21.20372022,2435
21.21458666,2540
21.2254531,2496
21.23631954,2529
21.24718598,2502
21.25805242,2457
21.26891886,2414
21.2797853,2478
21.29065174,2390
21.30151818,2456
21.31238462,2411
21.32325106,2402
21.3341175,2461
21.34498394,2442
21.35585038,2425
21.36671682,2505
21.37758326,2423
21.3884497,2545
21.39931614,2526
21.41018258,2444
21.42104902,2423
21.43191546,2459
21.4427819,2393
21.45364834,2446
21.46451478,2512
21.47538122,2496
21.48624766,2445
21.4971141,2439
21.50798054,2392
21.51884698,2531
21.52971342,2454
21.54057986,2566
21.5514463,2424
21.56231274,2467
21.57317918,2567
21.58404562,2498
21.59491206,2423
21.6057785,2469
21.61664494,2453
21.62751138,2451
21.63837782,2444
21.64924426,2478
21.6601107,2479
21.67097714,2435
21.68184358,2497
21.69271002,2462
21.70357646,2513
21.7144429,2450
21.72530934,2508
21.73617578,2498
21.74704222,2431
21.75790866,2448
21.7687751,2463
21.77964154,2495
21.79050798,2455
21.80137442,2488
21.81224086,2429
21.8231073,2462
21.83397374,2503
21.84484018,2443
21.85570662,2437
21.86657306,2455
21.8774395,2458
21.88830594,2469
21.89917238,2538
21.91003882,2344
21.92090526,2423
21.9317717,2390
21.94263814,2504
21.95350458,2343
21.96437102,2414
21.97523746,2403
21.9861039,2549
21.99697034,2538
22.00783678,2464
22.01870322,2475
22.02956966,2397
22.0404361,2407
22.05130254,2474
22.06216898,2564
22.07303542,2475
22.08390186,2422
22.0947683,2514
22.10563474,2533
22.11650118,2464
22.12736762,2526
22.13823406,2574
22.1491005,2420
22.15996694,2568
22.17083338,2591
22.18169982,2566
22.19256626,2607
22.2034327,2607
22.21429914,2579
22.22516558,2585
22.23603202,2651
22.24689846,2555
22.2577649,2621
22.26863134,2645
22.27949778,2693
22.29036422,2617
22.30123066,2738
22.3120971,2609
22.32296354,2739
22.33382998,2780
22.34469642,2682
22.35556286,2656
22.3664293,2758
22.37729574,2783
22.38816218,2720
22.39902862,2781
22.40989506,2828
22.4207615,2838
22.43162794,2742
22.44249438,2844
22.45336082,2922
22.46422726,2881
22.4750937,2888
22.48596014,2793
22.49682658,2998
22.50769302,2910
22.51855946,2864
22.5294259,2965
22.54029234,2975
22.55115878,2954
22.56202522,3133
22.57289166,3092
22.5837581,3051
22.59462454,3047
22.60549098,3204
22.61635742,3107
22.62722386,3189
22.6380903,3254
22.64895674,3277
22.65982318,3223
22.67068962,3225
22.68155606,3241
22.6924225,3196
22.70328894,3308
22.71415538,3220
22.72502182,3379
22.73588826,3349
22.7467547,3239
22.75762114,3459
22.76848758,3314
22.77935402,3346
22.79022046,3319
22.8010869,3322
22.81195334,3356
22.82281978,3337
22.83368622,3318
22.84455266,3405
22.8554191,3286
22.86628554,3402
22.87715198,3298
22.88801842,3428
22.89888486,3307
22.9097513,3336
22.92061774,3319
22.93148418,3246
22.94235062,3262
22.95321706,3212
22.9640835,3309
22.97494994,3231
22.98581638,3239
22.99668282,3158
23.00754926,3155
23.0184157,3199
23.02928214,3127
23.04014858,3081
23.05101502,3295
23.06188146,3207
23.0727479,3185
23.08361434,3157
23.09448078,3125
23.10534722,3182
23.11621366,3205
23.1270801,3216
23.13794654,3113
23.14881298,3181
23.15967942,3117
23.17054586,3131
23.1814123,3143
23.19227874,3091
23.20314518,3104
23.21401162,3071
23.22487806,3102
23.2357445,3159
23.24661094,3187
23.25747738,3088
23.26834382,3176
23.27921026,3131
23.2900767,3040
23.30094314,3184
23.31180958,3110
23.32267602,3183
23.33354246,3066
23.3444089,3110
23.35527534,3106
23.36614178,3113
23.37700822,3216
23.38787466,3120
23.3987411,3103
23.40960754,3154
23.42047398,3094
23.43134042,3143
23.44220686,3205
23.4530733,3035
23.46393974,3070
23.47480618,3120
23.48567262,3124
23.49653906,3116
23.5074055,3154
23.51827194,3098
23.52913838,3034
23.54000482,3065
23.55087126,2997
23.5617377,3004
23.57260414,3012
23.58347058,3068
23.59433702,3006
23.60520346,3114
23.6160699,3027
23.62693634,2984
23.63780278,3055
23.64866922,3101
23.65953566,2997
23.6704021,3172
23.68126854,3177
23.69213498,2996
23.70300142,3124
23.71386786,3191
23.7247343,3184
23.73560074,3126
23.74646718,3127
23.75733362,3089
23.76820006,3164
23.7790665,3206
23.78993294,3197
23.80079938,3177
23.81166582,3227
23.82253226,3302
23.8333987,3253
23.84426514,3224
23.85513158,3317
23.86599802,3365
23.87686446,3359
23.8877309,3423
23.89859734,3370
23.90946378,3408
23.92033022,3284
23.93119666,3318
23.9420631,3181
23.95292954,3228
23.96379598,3131
23.97466242,3213
23.98552886,3112
23.9963953,3251
24.00726174,3219
24.01812818,3148
24.02899462,2978
24.03986106,3155
24.0507275,3047
24.06159394,3011
24.07246038,3043
24.08332682,3054
24.09419326,3094
24.1050597,3036
24.11592614,2978
24.12679258,3014
24.13765902,2991
24.14852546,2939
24.1593919,3072
24.17025834,3129
24.18112478,2992
24.19199122,3024
24.20285766,3057
24.2137241,2921
24.22459054,3012
24.23545698,3022
24.24632342,2925
24.25718986,2903
24.2680563,2854
24.27892274,3063
24.28978918,2915
24.30065562,2902
24.31152206,2953
24.3223885,3017
24.33325494,3051
24.34412138,2979
24.35498782,2909
24.36585426,2915
24.3767207,3056
24.38758714,3079
24.39845358,3026
24.40932002,2963
24.42018646,3004
24.4310529,3008
24.44191934,2950
24.45278578,2934
24.46365222,3039
24.47451866,2863
24.4853851,2882
24.49625154,2984
24.50711798,2863
24.51798442,3001
24.52885086,2861
24.5397173,2982
24.55058374,2933
24.56145018,3016
24.57231662,2901
24.58318306,2980
24.5940495,2927
24.60491594,3026
24.61578238,2848
24.62664882,2933
24.63751526,2866
24.6483817,2873
24.65924814,2995
24.67011458,2878
24.68098102,2923
24.69184746,2880
24.7027139,3014
24.71358034,2920
24.72444678,2932
24.73531322,2851
24.74617966,2914
24.7570461,3044
24.76791254,3004
24.77877898,2826
24.78964542,2991
24.80051186,2961
24.8113783,3006
24.82224474,2917
24.83311118,2956
24.84397762,2930
24.85484406,2901
24.8657105,2866
24.87657694,2863
24.88744338,2955
24.89830982,3000
24.90917626,3064
24.9200427,2825
24.93090914,2959
24.94177558,2989
24.95264202,3137
24.96350846,2917
24.9743749,3063
24.98524134,2899
24.99610778,2891
25.00697422,3020
25.01784066,2887
25.0287071,3040
25.03957354,2915
25.05043998,2936
25.06130642,2976
25.07217286,2958
25.0830393,2996
25.09390574,3048
25.10477218,2982
25.11563862,2925
25.12650506,3051
25.1373715,2981
25.14823794,3021
25.15910438,3053
25.16997082,2981
25.18083726,3050
25.1917037,2923
25.20257014,3141
25.21343658,2989
25.22430302,2909
25.23516946,2993
25.2460359,2952
25.25690234,3017
25.26776878,3004
25.27863522,2967
25.28950166,2875
25.3003681,2964
25.31123454,2845
25.32210098,2952
25.33296742,3000
25.34383386,3023
25.3547003,2890
25.36556674,2906
25.37643318,2871
25.38729962,2934
25.39816606,2910
25.4090325,2992
25.41989894,2971
25.43076538,2941
25.44163182,2825
25.45249826,2952
25.4633647,2820
25.47423114,2949
25.48509758,2981
25.49596402,2978
25.50683046,2898
25.5176969,2868
25.52856334,2897
25.53942978,2945
25.55029622,2953
25.56116266,2916
25.5720291,2874
25.58289554,2956
25.59376198,2917
25.60462842,2947
25.61549486,2974
25.6263613,3019
25.63722774,2909
25.64809418,2949
25.65896062,2879
25.66982706,2890
25.6806935,2844
25.69155994,2890
25.70242638,2852
25.71329282,3038
25.72415926,2910
25.7350257,2922
25.74589214,2823
25.75675858,2973
25.76762502,2874
25.77849146,2971
25.7893579,2927
25.80022434,2910
25.81109078,2981
25.82195722,2940
25.83282366,3006
25.8436901,2949
25.85455654,2857
25.86542298,2967
25.87628942,2900
25.88715586,3035
25.8980223,2994
25.90888874,2920
25.91975518,2928
25.93062162,2930
25.94148806,2976
25.9523545,2939
25.96322094,2996
25.97408738,2844
25.98495382,2941
25.99582026,3000
26.0066867,2919
26.01755314,2967
26.02841958,2915
26.03928602,2968
26.05015246,2885
26.0610189,2895
26.07188534,2872
26.08275178,2883
26.09361822,2950
26.10448466,2897
26.1153511,3006
26.12621754,2919
26.13708398,2944
26.14795042,2965
26.15881686,3030
26.1696833,2914
26.18054974,2934
26.19141618,2965
26.20228262,2996
26.21314906,2938
26.2240155,2905
26.23488194,3002
26.24574838,2826
26.25661482,2978
26.26748126,2851
26.2783477,2974
26.28921414,2856
26.30008058,2966
26.31094702,2919
26.32181346,2871
26.3326799,2928
26.34354634,2869
26.35441278,2947
26.36527922,2879
26.37614566,2955
26.3870121,2953
26.39787854,2908
26.40874498,3005
26.41961142,2953
26.43047786,2880
26.4413443,2953
26.45221074,3009
26.46307718,2971
26.47394362,2964
26.48481006,2879
26.4956765,3089
26.50654294,3086
26.51740938,2958
26.52827582,3054
26.53914226,2942
26.5500087,2976
26.56087514,3054
26.57174158,3010
26.58260802,3027
26.59347446,2949
26.6043409,2857
26.61520734,2893
26.62607378,3023
26.63694022,3002
26.64780666,3032
26.6586731,2962
26.66953954,3056
26.68040598,2975
26.69127242,3052
26.70213886,3091
26.7130053,3040
26.72387174,2977
26.73473818,3110
26.74560462,3065
26.75647106,2942
26.7673375,3070
26.77820394,2998
26.78907038,3013
26.79993682,3045
26.81080326,2982
26.8216697,3036
26.83253614,2995
26.84340258,2998
26.85426902,3052
26.86513546,3007
26.8760019,2985
26.88686834,3038
26.89773478,3076
26.90860122,3153
26.91946766,3100
26.9303341,3102
26.94120054,3061
26.95206698,3031
26.96293342,3020
26.97379986,3130
26.9846663,3128
26.99553274,3189
27.00639918,3238
27.01726562,3087
27.02813206,3174
27.0389985,3197
27.04986494,3210
27.06073138,3276
27.07159782,3150
27.08246426,3269
27.0933307,3110
27.10419714,3141
27.11506358,3249
27.12593002,3249
27.13679646,3269
27.1476629,3172
27.15852934,3235
27.16939578,3310
27.18026222,3349
27.19112866,3158
27.2019951,3266
27.21286154,3317
27.22372798,3288
27.23459442,3327
27.24546086,3292
27.2563273,3332
27.26719374,3407
27.27806018,3304
27.28892662,3529
27.29979306,3464
27.3106595,3319
27.32152594,3369
27.33239238,3329
27.34325882,3387
27.35412526,3392
27.3649917,3406
27.37585814,3428
27.38672458,3342
27.39759102,3553
27.40845746,3385
27.4193239,3569
27.43019034,3371
27.44105678,3452
27.45192322,3407
27.46278966,3554
27.4736561,3557
27.48452254,3620
27.49538898,3473
27.50625542,3579
27.51712186,3542
27.5279883,3611
27.53885474,3577
27.54972118,3768
27.56058762,3509
27.57145406,3703
27.5823205,3749
27.59318694,3668
27.60405338,3699
27.61491982,3664
27.62578626,3724
27.6366527,3795
27.64751914,3746
27.65838558,3847
27.66925202,3846
27.68011846,3766
27.6909849,3871
27.70185134,3935
27.71271778,3887
27.72358422,3938
27.73445066,3879
27.7453171,4032
27.75618354,4064
27.76704998,4208
27.77791642,4056
27.78878286,4155
27.7996493,4182
27.81051574,4160
27.82138218,4283
27.83224862,4226
27.84311506,4209
27.8539815,4269
27.86484794,4332
27.87571438,4458
27.88658082,4394
27.89744726,4446
27.9083137,4403
27.91918014,4601
27.93004658,4622
27.94091302,4495
27.95177946,4815
27.9626459,4679
27.97351234,4703
27.98437878,4933
27.99524522,4820
28.00611166,5025
28.0169781,4905
28.02784454,5060
28.03871098,5107
28.04957742,5270
28.06044386,5253
28.0713103,5220
28.08217674,5359
28.09304318,5538
28.10390962,5619
28.11477606,5666
28.1256425,5569
28.13650894,5878
28.14737538,5769
28.15824182,6114
28.16910826,6014
28.1799747,6140
28.19084114,6285
28.20170758,6570
28.21257402,6485
28.22344046,6749
28.2343069,7010
28.24517334,7183
28.25603978,7162
28.26690622,7422
28.27777266,7660
28.2886391,7879
28.29950554,7964
28.31037198,8223
28.32123842,8494
28.33210486,8704
28.3429713,8990
28.35383774,9247
28.36470418,9672
28.37557062,10189
28.38643706,10342
28.3973035,10794
28.40816994,11367
28.41903638,11782
28.42990282,12321
28.44076926,12761
28.4516357,13463
28.46250214,13805
28.47336858,14396
28.48423502,15179
28.49510146,16013
28.5059679,16640
28.51683434,17303
28.52770078,18275
28.53856722,18860
28.54943366,19645
28.5603001,20221
28.57116654,20759
28.58203298,21445
28.59289942,21671
28.60376586,22229
28.6146323,22221
28.62549874,21923
28.63636518,22026
28.64723162,21494
28.65809806,21007
28.6689645,20678
28.67983094,20267
28.69069738,19184
28.70156382,18443
28.71243026,17759
28.7232967,17012
28.73416314,16678
28.74502958,15959
28.75589602,15389
28.76676246,14692
28.7776289,13935
28.78849534,13490
28.79936178,13210
28.81022822,12410
28.82109466,12229
28.8319611,11851
28.84282754,11298
28.85369398,11046
28.86456042,10479
28.87542686,10501
28.8862933,10029
28.89715974,10119
28.90802618,9763
28.91889262,9406
28.92975906,9301
28.9406255,9312
28.95149194,9015
28.96235838,8826
28.97322482,8610
28.98409126,8573
28.9949577,8450
29.00582414,8306
29.01669058,8215
29.02755702,8181
29.03842346,8046
29.0492899,7854
29.06015634,7729
29.07102278,7522
29.08188922,7621
29.09275566,7592
29.1036221,7472
29.11448854,7359
29.12535498,7361
29.13622142,7234
29.14708786,7170
29.1579543,6901
29.16882074,6988
29.17968718,6776
29.19055362,6676
29.20142006,6604
29.2122865,6570
29.22315294,6626
29.23401938,6380
29.24488582,6328
29.25575226,6218
29.2666187,5985
29.27748514,6046
29.28835158,6123
29.29921802,6098
29.31008446,6216
29.3209509,5903
29.33181734,5901
29.34268378,5767
29.35355022,5879
29.36441666,5875
29.3752831,5868
29.38614954,5738
29.39701598,5606
29.40788242,5610
29.41874886,5708
29.4296153,5688
29.44048174,5540
29.45134818,5627
29.46221462,5582
29.47308106,5541
29.4839475,5539
29.49481394,5447
29.50568038,5450
29.51654682,5349
29.52741326,5427
29.5382797,5248
29.54914614,5279
29.56001258,5304
29.57087902,5216
29.58174546,5251
29.5926119,5088
29.60347834,5164
29.61434478,5096
29.62521122,4963
29.63607766,5264
29.6469441,5139
29.65781054,5026
29.66867698,4808
29.67954342,4961
29.69040986,4939
29.7012763,5025
29.71214274,4818
29.72300918,4879
29.73387562,4855
29.74474206,4885
29.7556085,4972
29.76647494,4920
29.77734138,4849
29.78820782,4875
29.79907426,4822
29.8099407,4789
29.82080714,4773
29.83167358,4903
29.84254002,4883
29.85340646,4881
29.8642729,4816
29.87513934,4757
29.88600578,4666
29.89687222,4726
29.90773866,4686
29.9186051,4687
29.92947154,4698
29.94033798,4673
29.95120442,4784
29.96207086,4692
29.9729373,4799
29.98380374,4721
29.99467018,4610
