"Angle","Counts"
3.00243322,27470
3.01329966,26983
3.0241661,27020
3.03503254,26322
3.04589898,26389
3.05676542,25864
3.06763186,25552
3.0784983,25599
3.08936474,24924
3.10023118,24763
3.11109762,24705
3.12196406,24344
3.1328305,24280
3.14369694,23847
3.15456338,23383
3.16542982,23236
3.17629626,23007
3.1871627,22940
3.19802914,22695
3.20889558,22232
3.21976202,21938
3.23062846,21881
3.2414949,21589
3.25236134,21198
3.26322778,20955
3.27409422,20606
3.28496066,20557
3.2958271,20470
3.30669354,20360
3.31755998,20016
3.32842642,19956
3.33929286,19813
3.3501593,19451
3.36102574,19377
3.37189218,19257
3.38275862,18949
3.39362506,18604
3.4044915,18919
3.41535794,18494
3.42622438,18273
3.43709082,18136
3.44795726,17932
3.4588237,17614
3.46969014,17210
3.48055658,17376
3.49142302,17105
3.50228946,16887
3.5131559,16811
3.52402234,16637
3.53488878,16779
3.54575522,16324
3.55662166,16261
3.5674881,16143
3.57835454,15835
3.58922098,15520
3.60008742,15485
3.61095386,15123
3.6218203,15213
3.63268674,14920
3.64355318,14816
3.65441962,14794
3.66528606,14584
3.6761525,14685
3.68701894,14372
3.69788538,14277
3.70875182,14151
3.71961826,13889
3.7304847,13695
3.74135114,13866
3.75221758,13359
3.76308402,13557
3.77395046,13197
3.7848169,12867
3.79568334,12963
3.80654978,12923
3.81741622,12796
3.82828266,12668
3.8391491,12374
3.85001554,12322
3.86088198,12265
3.87174842,12098
3.88261486,11902
3.8934813,11883
3.90434774,11707
3.91521418,11565
3.92608062,11607
3.93694706,11415
3.9478135,11257
3.95867994,11280
3.96954638,11145
3.98041282,10902
3.99127926,10991
4.0021457,10676
4.01301214,10701
4.02387858,10742
4.03474502,10495
4.04561146,10375
4.0564779,10389
4.06734434,10319
4.07821078,10178
4.08907722,10021
4.09994366,9900
4.1108101,9743
4.12167654,9635
4.13254298,9748
4.14340942,9663
4.15427586,9416
4.1651423,9378
4.17600874,9186
4.18687518,9185
4.19774162,9111
4.20860806,9069
4.2194745,9037
4.23034094,8895
4.24120738,8907
4.25207382,8646
4.26294026,8393
4.2738067,8449
4.28467314,8503
4.29553958,8451
4.30640602,8098
4.31727246,8039
4.3281389,8255
4.33900534,7961
4.34987178,8041
4.36073822,7904
4.37160466,7762
4.3824711,7720
4.39333754,7756
4.40420398,7635
4.41507042,7702
4.42593686,7424
4.4368033,7425
4.44766974,7169
4.45853618,7196
4.46940262,7088
4.48026906,7237
4.4911355,7231
4.50200194,6968
4.51286838,6923
4.52373482,6858
4.53460126,6823
4.5454677,6708
4.55633414,6540
4.56720058,6697
4.57806702,6672
4.58893346,6409
4.5997999,6502
4.61066634,6434
4.62153278,6234
4.63239922,6376
4.64326566,6179
4.6541321,6045
4.66499854,6210
4.67586498,6151
4.68673142,6068
4.69759786,6044
4.7084643,5955
4.71933074,5836
4.73019718,5835
4.74106362,5560
4.75193006,5699
4.7627965,5585
4.77366294,5555
4.78452938,5629
4.79539582,5573
4.80626226,5331
4.8171287,5393
4.82799514,5365
4.83886158,5207
4.84972802,5177
4.86059446,5176
4.8714609,5064
4.88232734,5211
4.89319378,5094
4.90406022,5187
4.91492666,5067
4.9257931,4989
4.93665954,5067
4.94752598,4851
4.95839242,4957
4.96925886,4963
4.9801253,4785
4.99099174,4892
5.00185818,4526
5.01272462,4651
5.02359106,4673
5.0344575,4668
5.04532394,4749
5.05619038,4552
5.06705682,4457
5.07792326,4396
5.0887897,4499
5.09965614,4396
5.11052258,4563
5.12138902,4369
5.13225546,4284
5.1431219,4242
5.15398834,4289
5.16485478,4286
5.17572122,4078
5.18658766,4149
5.1974541,4168
5.20832054,4090
5.21918698,4079
5.23005342,4182
5.24091986,4016
5.2517863,4191
5.26265274,4004
5.27351918,3955
5.28438562,3857
5.29525206,3846
5.3061185,3765
5.31698494,3903
5.32785138,3752
5.33871782,3870
5.34958426,3780
5.3604507,3834
5.37131714,3797
5.38218358,3690
5.39305002,3727
5.40391646,3655
5.4147829,3695
5.42564934,3570
5.43651578,3616
5.44738222,3547
5.45824866,3473
5.4691151,3632
5.47998154,3382
5.49084798,3482
5.50171442,3546
5.51258086,3528
5.5234473,3438
5.53431374,3395
5.54518018,3391
5.55604662,3425
5.56691306,3328
5.5777795,3459
5.58864594,3326
5.59951238,3245
5.61037882,3220
5.62124526,3362
5.6321117,3278
5.64297814,3160
5.65384458,3244
5.66471102,3229
5.67557746,3201
5.6864439,3222
5.69731034,3210
5.70817678,3237
5.71904322,3035
5.72990966,3278
5.7407761,3083
5.75164254,3188
5.76250898,3169
5.77337542,3154
5.78424186,3013
5.7951083,3014
5.80597474,3083
5.81684118,2968
5.82770762,3065
5.83857406,3053
5.8494405,2951
5.86030694,2992
5.87117338,2913
5.88203982,2998
5.89290626,2992
5.9037727,3012
5.91463914,2996
5.92550558,3002
5.93637202,2917
5.94723846,2981
5.9581049,3009
5.96897134,2932
5.97983778,2953
5.99070422,3010
6.00157066,2976
6.0124371,2918
6.02330354,2856
6.03416998,2979
6.04503642,2902
6.05590286,2930
6.0667693,2915
6.07763574,2929
6.08850218,2876
6.09936862,2961
6.11023506,2868
6.1211015,2935
6.13196794,2946
6.14283438,2979
6.15370082,2842
6.16456726,2892
6.1754337,2896
6.18630014,2879
6.19716658,2915
6.20803302,2970
6.21889946,2983
6.2297659,2838
6.24063234,2821
6.25149878,2917
6.26236522,2873
6.27323166,2738
6.2840981,2940
6.29496454,2925
6.30583098,2839
6.31669742,2902
6.32756386,2821
6.3384303,2869
6.34929674,2908
6.36016318,2759
6.37102962,2782
6.38189606,2909
6.3927625,2919
6.40362894,2823
6.41449538,2927
6.42536182,2818
6.43622826,2846
6.4470947,2807
6.45796114,2842
6.46882758,2815
6.47969402,2792
6.49056046,2833
6.5014269,2928
6.51229334,2733
6.52315978,2800
6.53402622,2864
6.54489266,2729
6.5557591,2751
6.56662554,2823
6.57749198,2816
6.58835842,2771
6.59922486,2804
6.6100913,2771
6.62095774,2783
6.63182418,2832
6.64269062,2911
6.65355706,2691
6.6644235,2860
6.67528994,2804
6.68615638,2864
6.69702282,2838
6.70788926,2863
6.7187557,2747
6.72962214,2780
6.74048858,2790
6.75135502,2814
6.76222146,2821
6.7730879,2776
6.78395434,2807
6.79482078,2751
6.80568722,2837
6.81655366,2813
6.8274201,2725
6.83828654,2840
6.84915298,2792
6.86001942,2804
6.87088586,2786
6.8817523,2891
6.89261874,2897
6.90348518,2801
6.91435162,2793
6.92521806,2831
6.9360845,2792
6.94695094,2766
6.95781738,2798
6.96868382,2718
6.97955026,2831
6.9904167,2780
7.00128314,2795
7.01214958,2698
7.02301602,2845
7.03388246,2785
7.0447489,2704
7.05561534,2689
7.06648178,2842
7.07734822,2688
7.08821466,2816
7.0990811,2764
7.10994754,2651
7.12081398,2832
7.13168042,2717
7.14254686,2742
7.1534133,2737
7.16427974,2757
7.17514618,2747
7.18601262,2796
7.19687906,2804
7.2077455,2713
7.21861194,2666
7.22947838,2612
7.24034482,2719
7.25121126,2683
7.2620777,2679
7.27294414,2795
7.28381058,2730
7.29467702,2761
7.30554346,2747
7.3164099,2770
7.32727634,2648
7.33814278,2724
7.34900922,2727
7.35987566,2648
7.3707421,2776
7.38160854,2704
7.39247498,2745
7.40334142,2686
7.41420786,2664
7.4250743,2661
7.43594074,2590
7.44680718,2661
7.45767362,2685
7.46854006,2697
7.4794065,2608
7.49027294,2648
7.50113938,2643
7.51200582,2624
7.52287226,2655
7.5337387,2668
7.54460514,2523
7.55547158,2619
7.56633802,2713
7.57720446,2577
7.5880709,2648
7.59893734,2560
7.60980378,2657
7.62067022,2600
7.63153666,2626
7.6424031,2651
7.65326954,2561
7.66413598,2664
7.67500242,2603
7.68586886,2551
7.6967353,2597
7.70760174,2584
7.71846818,2557
7.72933462,2647
7.74020106,2620
7.7510675,2624
7.76193394,2603
7.77280038,2535
7.78366682,2635
7.79453326,2565
7.8053997,2591
7.81626614,2616
7.82713258,2614
7.83799902,2560
7.84886546,2648
7.8597319,2623
7.87059834,2533
7.88146478,2592
7.89233122,2515
7.90319766,2576
7.9140641,2636
7.92493054,2562
7.93579698,2564
7.94666342,2503
7.95752986,2586
7.9683963,2612
7.97926274,2549
7.99012918,2557
8.00099562,2619
8.01186206,2504
8.0227285,2498
8.03359494,2471
8.04446138,2586
8.05532782,2558
8.06619426,2552
8.0770607,2513
8.08792714,2531
8.09879358,2525
8.10966002,2486
8.12052646,2563
8.1313929,2552
8.14225934,2587
8.15312578,2501
8.16399222,2494
8.17485866,2501
8.1857251,2478
8.19659154,2589
8.20745798,2509
8.21832442,2568
8.22919086,2532
8.2400573,2492
8.25092374,2629
8.26179018,2482
8.27265662,2536
8.28352306,2558
8.2943895,2489
8.30525594,2560
8.31612238,2470
8.32698882,2522
8.33785526,2543
8.3487217,2579
8.35958814,2542
8.37045458,2525
8.38132102,2570
8.39218746,2514
8.4030539,2653
8.41392034,2536
8.42478678,2541
8.43565322,2525
8.44651966,2520
8.4573861,2614
8.46825254,2587
8.47911898,2598
8.48998542,2528
8.50085186,2482
8.5117183,2587
8.52258474,2614
8.53345118,2650
8.54431762,2604
8.55518406,2544
8.5660505,2585
8.57691694,2682
8.58778338,2541
8.59864982,2496
8.60951626,2518
8.6203827,2591
8.63124914,2426
8.64211558,2638
8.65298202,2523
8.66384846,2527
8.6747149,2540
8.68558134,2552
8.69644778,2437
8.70731422,2497
8.71818066,2544
8.7290471,2550
8.73991354,2450
8.75077998,2528
8.76164642,2523
8.77251286,2642
8.7833793,2488
8.79424574,2659
8.80511218,2432
8.81597862,2531
8.82684506,2671
8.8377115,2541
8.84857794,2459
8.85944438,2544
8.87031082,2637
8.88117726,2579
8.8920437,2560
8.90291014,2637
8.91377658,2603
8.92464302,2563
8.93550946,2519
8.9463759,2574
8.95724234,2562
8.96810878,2650
8.97897522,2610
8.98984166,2657
9.0007081,2431
9.01157454,2647
9.02244098,2576
9.03330742,2673
9.04417386,2509
9.0550403,2640
9.06590674,2587
9.07677318,2528
9.08763962,2636
9.09850606,2667
9.1093725,2635
9.12023894,2579
9.13110538,2546
9.14197182,2627
9.15283826,2613
9.1637047,2622
9.17457114,2574
9.18543758,2605
9.19630402,2678
9.20717046,2679
9.2180369,2558
9.22890334,2586
9.23976978,2565
9.25063622,2645
9.26150266,2563
9.2723691,2607
9.28323554,2586
9.29410198,2620
9.30496842,2580
9.31583486,2609
9.3267013,2604
9.33756774,2656
9.34843418,2542
9.35930062,2663
9.37016706,2580
9.3810335,2633
9.39189994,2603
9.40276638,2530
9.41363282,2715
9.42449926,2573
9.4353657,2692
9.44623214,2575
9.45709858,2695
9.46796502,2514
9.47883146,2595
9.4896979,2628
9.50056434,2607
9.51143078,2725
9.52229722,2603
9.53316366,2635
9.5440301,2727
9.55489654,2640
9.56576298,2650
9.57662942,2539
9.58749586,2603
9.5983623,2706
9.60922874,2607
9.62009518,2611
9.63096162,2749
9.64182806,2745
9.6526945,2671
9.66356094,2666
9.67442738,2762
9.68529382,2819
9.69616026,2614
9.7070267,2754
9.71789314,2817
9.72875958,2828
9.73962602,2732
9.75049246,2894
9.7613589,2773
9.77222534,2749
9.78309178,2763
9.79395822,2770
9.80482466,2749
9.8156911,2895
9.82655754,2866
9.83742398,2815
9.84829042,2790
9.85915686,2848
9.8700233,2813
9.88088974,2722
9.89175618,2761
9.90262262,2852
9.91348906,2879
9.9243555,2844
9.93522194,2839
9.94608838,2748
9.95695482,2692
9.96782126,2797
9.9786877,2784
9.98955414,2708
10.00042058,2623
10.01128702,2656
10.02215346,2712
10.0330199,2576
10.04388634,2680
10.05475278,2697
10.06561922,2754
10.07648566,2708
10.0873521,2714
10.09821854,2678
10.10908498,2718
10.11995142,2707
10.13081786,2675
10.1416843,2576
10.15255074,2647
10.16341718,2667
10.17428362,2599
10.18515006,2766
10.1960165,2722
10.20688294,2627
10.21774938,2625
10.22861582,2609
10.23948226,2643
10.2503487,2696
10.26121514,2693
10.27208158,2689
10.28294802,2763
10.29381446,2726
10.3046809,2621
10.31554734,2673
10.32641378,2658
10.33728022,2524
10.34814666,2662
10.3590131,2667
10.36987954,2591
10.38074598,2649
10.39161242,2588
10.40247886,2737
10.4133453,2708
10.42421174,2736
10.43507818,2656
10.44594462,2597
10.45681106,2660
10.4676775,2714
10.47854394,2536
10.48941038,2695
10.50027682,2700
10.51114326,2669
10.5220097,2640
10.53287614,2618
10.54374258,2729
10.55460902,2704
10.56547546,2624
10.5763419,2715
10.58720834,2602
10.59807478,2818
10.60894122,2737
10.61980766,2704
10.6306741,2615
10.64154054,2647
10.65240698,2562
10.66327342,2670
10.67413986,2648
10.6850063,2648
10.69587274,2699
10.70673918,2651
10.71760562,2726
10.72847206,2721
10.7393385,2659
10.75020494,2654
10.76107138,2691
10.77193782,2754
10.78280426,2710
10.7936707,2698
10.80453714,2652
10.81540358,2682
10.82627002,2782
10.83713646,2639
10.8480029,2621
10.85886934,2698
10.86973578,2731
10.88060222,2736
10.89146866,2765
10.9023351,2850
10.91320154,2757
10.92406798,2825
10.93493442,2753
10.94580086,2788
10.9566673,2845
10.96753374,2694
10.97840018,2791
10.98926662,2767
11.00013306,2769
11.0109995,2864
11.02186594,2867
11.03273238,2845
11.04359882,2924
11.05446526,2796
11.0653317,2862
11.07619814,2787
11.08706458,2880
11.09793102,2837
11.10879746,2854
11.1196639,2830
11.13053034,3000
11.14139678,2920
11.15226322,2962
11.16312966,2981
11.1739961,3059
11.18486254,3093
11.19572898,3112
11.20659542,3175
11.21746186,3186
11.2283283,3290
11.23919474,3378
11.25006118,3204
11.26092762,3330
11.27179406,3362
11.2826605,3413
11.29352694,3500
11.30439338,3464
11.31525982,3490
11.32612626,3592
11.3369927,3663
11.34785914,3719
11.35872558,3818
11.36959202,3780
11.38045846,3731
11.3913249,3620
11.40219134,3602
11.41305778,3454
11.42392422,3272
11.43479066,3206
11.4456571,2996
11.45652354,3041
11.46738998,2996
11.47825642,2857
11.48912286,2917
11.4999893,2927
11.51085574,2810
11.52172218,2737
11.53258862,2833
11.54345506,2808
11.5543215,2916
11.56518794,2902
11.57605438,2811
11.58692082,2768
11.59778726,2763
11.6086537,2859
11.61952014,2748
11.63038658,2861
11.64125302,2839
11.65211946,2831
11.6629859,2742
11.67385234,2910
11.68471878,2896
11.69558522,2835
11.70645166,2751
11.7173181,2802
11.72818454,2818
11.73905098,2769
11.74991742,2867
11.76078386,2734
11.7716503,2817
11.78251674,2790
11.79338318,2829
11.80424962,2784
11.81511606,2842
11.8259825,2898
11.83684894,2836
11.84771538,2724
11.85858182,2837
11.86944826,2801
11.8803147,2792
11.89118114,2762
11.90204758,2841
11.91291402,2716
11.92378046,2711
11.9346469,2743
11.94551334,2896
11.95637978,2793
11.96724622,2758
11.97811266,2850
11.9889791,2809
11.99984554,2796
12.01071198,2786
12.02157842,2765
12.03244486,2795
12.0433113,2845
12.05417774,2830
12.06504418,2763
12.07591062,2807
12.08677706,2851
12.0976435,2929
12.10850994,2851
12.11937638,2893
12.13024282,2790
12.14110926,2954
12.1519757,2814
12.16284214,2886
12.17370858,2777
12.18457502,2886
12.19544146,2754
12.2063079,2832
12.21717434,2774
12.22804078,2845
12.23890722,2748
12.24977366,2677
12.2606401,2753
12.27150654,2726
12.28237298,2840
12.29323942,2848
12.30410586,2937
12.3149723,2829
12.32583874,2823
12.33670518,2882
12.34757162,2788
12.35843806,2765
12.3693045,2842
12.38017094,2806
12.39103738,2933
12.40190382,2965
12.41277026,2858
12.4236367,2853
12.43450314,2887
12.44536958,2876
12.45623602,2890
12.46710246,2860
12.4779689,3021
12.48883534,2901
12.49970178,2938
12.51056822,2900
12.52143466,2981
12.5323011,2969
12.54316754,2901
12.55403398,2871
12.56490042,2902
12.57576686,2915
12.5866333,2940
12.59749974,2843
12.60836618,2833
12.61923262,2940
12.63009906,3004
12.6409655,2932
12.65183194,3008
12.66269838,3050
12.67356482,2927
12.68443126,2901
12.6952977,2924
12.70616414,2864
12.71703058,2909
12.72789702,3029
12.73876346,3038
12.7496299,2974
12.76049634,2992
12.77136278,2900
12.78222922,2870
12.79309566,2865
12.8039621,3019
12.81482854,3051
12.82569498,2889
12.83656142,3035
12.84742786,2970
12.8582943,3053
12.86916074,2925
12.88002718,2946
12.89089362,2943
12.90176006,3050
12.9126265,3030
12.92349294,2993
12.93435938,3061
12.94522582,3023
12.95609226,3130
12.9669587,3123
12.97782514,2997
12.98869158,2986
12.99955802,3152
13.01042446,3049
13.0212909,3122
13.03215734,3099
13.04302378,3069
13.05389022,3214
13.06475666,3226
13.0756231,3128
13.08648954,3100
13.09735598,3138
13.10822242,3144
13.11908886,3158
13.1299553,3125
13.14082174,3127
13.15168818,3216
13.16255462,3299
13.17342106,3267
13.1842875,3265
13.19515394,3251
13.20602038,3252
13.21688682,3300
13.22775326,3302
13.2386197,3319
13.24948614,3326
13.26035258,3377
13.27121902,3244
13.28208546,3367
13.2929519,3491
13.30381834,3426
13.31468478,3331
13.32555122,3497
13.33641766,3442
13.3472841,3514
13.35815054,3453
13.36901698,3525
13.37988342,3456
13.39074986,3541
13.4016163,3591
13.41248274,3737
13.42334918,3533
13.43421562,3583
13.44508206,3617
13.4559485,3674
13.46681494,3616
13.47768138,3796
13.48854782,3729
13.49941426,3723
13.5102807,3866
13.52114714,3881
13.53201358,4015
13.54288002,3845
13.55374646,3871
13.5646129,3869
13.57547934,3971
13.58634578,3922
13.59721222,4138
13.60807866,4144
13.6189451,4310
13.62981154,4117
13.64067798,4217
13.65154442,4148
13.66241086,4344
13.6732773,4352
13.68414374,4510
13.69501018,4496
13.70587662,4536
13.71674306,4510
13.7276095,4695
13.73847594,4740
13.74934238,4770
13.76020882,4777
13.77107526,4766
13.7819417,4899
13.79280814,4888
13.80367458,5027
13.81454102,5084
13.82540746,5205
13.8362739,5210
13.84714034,5114
13.85800678,5387
13.86887322,5319
13.87973966,5429
13.8906061,5584
13.90147254,5355
13.91233898,5637
13.92320542,5532
13.93407186,5549
13.9449383,5493
13.95580474,5491
13.96667118,5489
13.97753762,5547
13.98840406,5401
13.9992705,5409
14.01013694,5296
14.02100338,5209
14.03186982,5122
14.04273626,5012
14.0536027,4830
14.06446914,4659
14.07533558,4554
14.08620202,4449
14.09706846,4252
14.1079349,4180
14.11880134,4205
14.12966778,3957
14.14053422,4124
14.15140066,3761
14.1622671,3850
14.17313354,3829
14.18399998,3704
14.19486642,3493
14.20573286,3485
14.2165993,3317
14.22746574,3433
14.23833218,3361
14.24919862,3381
14.26006506,3286
14.2709315,3279
14.28179794,3196
14.29266438,3249
14.30353082,3127
14.31439726,3190
14.3252637,3092
14.33613014,3158
14.34699658,3073
14.35786302,3041
14.36872946,3038
14.3795959,3000
14.39046234,2945
14.40132878,3041
14.41219522,2930
14.42306166,2809
14.4339281,2896
14.44479454,2865
14.45566098,2946
14.46652742,2915
14.47739386,2936
14.4882603,2771
14.49912674,2856
14.50999318,2834
14.52085962,2804
14.53172606,2765
14.5425925,2774
14.55345894,2755
14.56432538,2756
14.57519182,2839
14.58605826,2690
14.5969247,2699
14.60779114,2715
14.61865758,2771
14.62952402,2819
14.64039046,2753
14.6512569,2816
14.66212334,2733
14.67298978,2656
14.68385622,2760
14.69472266,2622
14.7055891,2693
14.71645554,2682
14.72732198,2642
14.73818842,2680
14.74905486,2612
14.7599213,2582
14.77078774,2601
14.78165418,2519
14.79252062,2479
14.80338706,2711
14.8142535,2516
14.82511994,2591
14.83598638,2630
14.84685282,2627
14.85771926,2624
14.8685857,2616
14.87945214,2467
14.89031858,2548
14.90118502,2486
14.91205146,2493
14.9229179,2581
14.93378434,2618
14.94465078,2601
14.95551722,2540
14.96638366,2494
14.9772501,2483
14.98811654,2483
14.99898298,2516
15.00984942,2599
15.02071586,2618
15.0315823,2487
15.04244874,2621
15.05331518,2590
15.06418162,2456
15.07504806,2547
15.0859145,2526
15.09678094,2479
15.10764738,2485
15.11851382,2417
15.12938026,2426
15.1402467,2437
15.15111314,2499
15.16197958,2495
15.17284602,2441
15.18371246,2574
15.1945789,2573
15.20544534,2399
15.21631178,2459
15.22717822,2410
15.23804466,2515
15.2489111,2479
15.25977754,2534
15.27064398,2446
15.28151042,2541
15.29237686,2453
15.3032433,2545
15.31410974,2524
15.32497618,2478
15.33584262,2415
15.34670906,2543
15.3575755,2461
15.36844194,2421
15.37930838,2509
15.39017482,2510
15.40104126,2497
15.4119077,2484
15.42277414,2549
15.43364058,2413
15.44450702,2447
15.45537346,2524
15.4662399,2559
15.47710634,2500
15.48797278,2407
15.49883922,2487
15.50970566,2525
15.5205721,2444
15.53143854,2485
15.54230498,2473
15.55317142,2415
15.56403786,2559
15.5749043,2536
15.58577074,2566
15.59663718,2486
15.60750362,2598
15.61837006,2547
15.6292365,2643
15.64010294,2528
15.65096938,2646
15.66183582,2580
15.67270226,2604
15.6835687,2520
15.69443514,2705
15.70530158,2565
15.71616802,2619
15.72703446,2658
15.7379009,2656
15.74876734,2735
15.75963378,2726
15.77050022,2831
15.78136666,2795
15.7922331,2879
15.80309954,3003
15.81396598,2911
15.82483242,2926
15.83569886,3020
15.8465653,3021
15.85743174,3177
15.86829818,3233
15.87916462,3183
15.89003106,3309
15.9008975,3379
15.91176394,3470
15.92263038,3426
15.93349682,3558
15.94436326,3598
15.9552297,3794
15.96609614,3890
15.97696258,3952
15.98782902,4205
15.99869546,4287
16.0095619,4609
16.02042834,4884
16.03129478,5174
16.04216122,5426
16.05302766,5930
16.0638941,6160
16.07476054,6519
16.08562698,7058
16.09649342,7469
16.10735986,7871
16.1182263,8479
16.12909274,9185
16.13995918,9629
16.15082562,10492
16.16169206,10948
16.1725585,11937
16.18342494,12425
16.19429138,13615
16.20515782,14535
16.21602426,15172
16.2268907,15946
16.23775714,16730
16.24862358,17722
16.25949002,18333
16.27035646,17738
16.2812229,16753
16.29208934,15209
16.30295578,13643
16.31382222,11771
16.32468866,9882
16.3355551,8138
16.34642154,6732
16.35728798,5715
16.36815442,4856
16.37902086,4349
16.3898873,3872
16.40075374,3533
16.41162018,3335
16.42248662,3200
16.43335306,3199
16.4442195,3046
16.45508594,2864
16.46595238,2953
16.47681882,2941
16.48768526,2720
16.4985517,2896
16.50941814,2656
16.52028458,2781
16.53115102,2772
16.54201746,2768
16.5528839,2749
16.56375034,2699
16.57461678,2727
16.58548322,2650
16.59634966,2766
16.6072161,2777
16.61808254,2777
16.62894898,2721
16.63981542,2678
16.65068186,2757
16.6615483,2682
16.67241474,2758
16.68328118,2795
16.69414762,2872
16.70501406,2894
16.7158805,2819
16.72674694,2826
16.73761338,2881
16.74847982,3034
16.75934626,2983
16.7702127,3054
16.78107914,3037
16.79194558,3110
16.80281202,3004
16.81367846,3071
16.8245449,3131
16.83541134,3124
16.84627778,3189
16.85714422,3118
16.86801066,3199
16.8788771,3136
16.88974354,3023
16.90060998,3092
16.91147642,2943
16.92234286,2893
16.9332093,2751
16.94407574,2744
16.95494218,2625
16.96580862,2719
16.97667506,2542
16.9875415,2620
16.99840794,2493
17.00927438,2570
17.02014082,2543
17.03100726,2408
17.0418737,2346
17.05274014,2481
17.06360658,2477
17.07447302,2412
17.08533946,2280
17.0962059,2319
17.10707234,2223
17.11793878,2354
17.12880522,2305
17.13967166,2298
17.1505381,2340
17.16140454,2279
17.17227098,2230
17.18313742,2295
17.19400386,2250
17.2048703,2227
17.21573674,2181
17.22660318,2224
17.23746962,2155
17.24833606,2248
17.2592025,2278
17.27006894,2225
17.28093538,2211
17.29180182,2246
17.30266826,2207
17.3135347,2224
17.32440114,2207
17.33526758,2181
17.34613402,2218
17.35700046,2190
17.3678669,2256
17.37873334,2184
17.38959978,2094
17.40046622,2258
17.41133266,2203
17.4221991,2169
17.43306554,2205
17.44393198,2210
17.45479842,2181
17.46566486,2096
17.4765313,2176
17.48739774,2189
17.49826418,2205
17.50913062,2176
17.51999706,2257
17.5308635,2176
17.54172994,2086
17.55259638,2263
17.56346282,2122
17.57432926,2150
17.5851957,2181
17.59606214,2209
17.60692858,2137
17.61779502,2173
17.62866146,2221
17.6395279,2130
17.65039434,2090
17.66126078,2222
17.67212722,2173
17.68299366,2138
17.6938601,2147
17.70472654,2137
17.71559298,2079
17.72645942,2216
17.73732586,2185
17.7481923,2136
17.75905874,2070
17.76992518,2105
17.78079162,2135
17.79165806,2137
17.8025245,2153
17.81339094,2115
17.82425738,2112
17.83512382,2083
17.84599026,2047
17.8568567,2068
17.86772314,2091
17.87858958,2095
17.88945602,2036
17.90032246,2122
17.9111889,2141
17.92205534,1990
17.93292178,2065
17.94378822,2213
17.95465466,2096
17.9655211,2132
17.97638754,2092
17.98725398,2087
17.99812042,2155
18.00898686,2072
18.0198533,2088
18.03071974,2187
18.04158618,2118
18.05245262,2048
18.06331906,2159
18.0741855,2122
18.08505194,2103
18.09591838,2037
18.10678482,2148
18.11765126,2132
18.1285177,2123
18.13938414,2055
18.15025058,2078
18.16111702,2078
18.17198346,2089
18.1828499,2096
18.19371634,2088
18.20458278,2090
18.21544922,2026
18.22631566,2135
18.2371821,2139
18.24804854,2136
18.25891498,2055
18.26978142,2027
18.28064786,2051
18.2915143,1944
18.30238074,2016
18.31324718,2099
18.32411362,1956
18.33498006,2038
18.3458465,2071
18.35671294,1984
18.36757938,2078
18.37844582,2017
18.38931226,2060
18.4001787,2038
18.41104514,2016
18.42191158,2048
18.43277802,2066
18.44364446,2047
18.4545109,1966
18.46537734,2127
18.47624378,2083
18.48711022,2069
18.49797666,2171
18.5088431,2160
18.51970954,2096
18.53057598,2124
18.54144242,2118
18.55230886,2228
18.5631753,2099
18.57404174,2022
18.58490818,2077
18.59577462,2105
18.60664106,2103
18.6175075,2051
18.62837394,2074
18.63924038,2090
18.65010682,2142
18.66097326,2095
18.6718397,2130
18.68270614,2072
18.69357258,2139
18.70443902,2045
18.71530546,2082
18.7261719,2107
18.73703834,2082
18.74790478,1997
18.75877122,2147
18.76963766,2096
18.7805041,2101
18.79137054,2050
18.80223698,2056
18.81310342,2066
18.82396986,2011
18.8348363,2114
18.84570274,2012
18.85656918,2068
18.86743562,2008
18.87830206,1997
18.8891685,1946
18.90003494,2072
18.91090138,2064
18.92176782,2015
18.93263426,2034
18.9435007,1991
18.95436714,2026
18.96523358,1980
18.97610002,2057
18.98696646,2054
18.9978329,2084
19.00869934,1951
19.01956578,2060
19.03043222,2093
19.04129866,2040
19.0521651,2106
19.06303154,2075
19.07389798,2069
19.08476442,2018
19.09563086,2018
19.1064973,2072
19.11736374,2023
19.12823018,1989
19.13909662,1996
19.14996306,2021
19.1608295,2005
19.17169594,2044
19.18256238,2040
19.19342882,1999
19.20429526,2044
19.2151617,2051
19.22602814,2006
19.23689458,1996
19.24776102,2027
19.25862746,2028
19.2694939,1932
19.28036034,1997
19.29122678,2023
19.30209322,2049
19.31295966,2005
19.3238261,2043
19.33469254,2161
19.34555898,1926
19.35642542,2118
19.36729186,1925
19.3781583,1973
19.38902474,1955
19.39989118,1993
19.41075762,2031
19.42162406,2092
19.4324905,1982
19.44335694,2016
19.45422338,1962
19.46508982,1998
19.47595626,1984
19.4868227,2001
19.49768914,2075
19.50855558,2096
19.51942202,1929
19.53028846,1928
19.5411549,1915
19.55202134,1992
19.56288778,1994
19.57375422,1930
19.58462066,1896
19.5954871,1946
19.60635354,1900
19.61721998,2058
19.62808642,1932
19.63895286,1925
19.6498193,2040
19.66068574,1936
19.67155218,1948
19.68241862,1935
19.69328506,2027
19.7041515,2027
19.71501794,1937
19.72588438,2023
19.73675082,1956
19.74761726,2031
19.7584837,1925
19.76935014,1998
19.78021658,1957
19.79108302,2022
19.80194946,1946
19.8128159,1984
19.82368234,1992
19.83454878,1902
19.84541522,1957
19.85628166,1917
19.8671481,1976
19.87801454,2027
19.88888098,2013
19.89974742,2015
19.91061386,1951
19.9214803,1915
19.93234674,1991
19.94321318,2040
19.95407962,2033
19.96494606,1976
19.9758125,1957
19.98667894,1875
19.99754538,2019
20.00841182,1993
20.01927826,2045
20.0301447,1974
20.04101114,2043
20.05187758,2030
20.06274402,1942
20.07361046,2017
20.0844769,2005
20.09534334,2002
20.10620978,1891
20.11707622,1993
20.12794266,1970
20.1388091,1891
20.14967554,2029
20.16054198,2046
20.17140842,2089
20.18227486,1941
20.1931413,1953
20.20400774,2145
20.21487418,1989
20.22574062,2008
20.23660706,1969
20.2474735,1977
20.25833994,1970
20.26920638,1977
20.28007282,1975
20.29093926,2072
20.3018057,2001
20.31267214,2084
20.32353858,2051
20.33440502,2099
20.34527146,2110
20.3561379,1967
20.36700434,1959
20.37787078,2017
20.38873722,2018
20.39960366,1997
20.4104701,2003
20.42133654,1979
20.43220298,1969
20.44306942,1966
20.45393586,1909
20.4648023,2034
20.47566874,2074
20.48653518,2006
20.49740162,2046
20.50826806,1962
20.5191345,2075
20.53000094,1953
20.54086738,2007
20.55173382,2029
20.56260026,2026
20.5734667,1999
20.58433314,1964
20.59519958,2008
20.60606602,2025
20.61693246,2051
20.6277989,2066
20.63866534,1976
20.64953178,2004
20.66039822,2070
20.67126466,2096
20.6821311,2090
20.69299754,2037
20.70386398,2019
20.71473042,2087
20.72559686,2063
20.7364633,2118
20.74732974,2074
20.75819618,2130
20.76906262,2153
20.77992906,2116
20.7907955,2132
20.80166194,2121
20.81252838,2175
20.82339482,2158
20.83426126,2118
20.8451277,2152
20.85599414,2231
20.86686058,2264
20.87772702,2202
20.88859346,2258
20.8994599,2269
20.91032634,2238
20.92119278,2276
20.93205922,2264
20.94292566,2211
20.9537921,2238
20.96465854,2117
20.97552498,2098
20.98639142,2115
20.99725786,2141
21.0081243,2126
21.01899074,2109
21.02985718,2097
21.04072362,2082
21.05159006,2049
21.0624565,2112
21.07332294,2126
21.08418938,1995
21.09505582,2024
21.10592226,2079
21.1167887,2029
21.12765514,2047
21.13852158,1980
21.14938802,2004
21.16025446,1891
21.1711209,2034
21.18198734,1973
21.19285378,2022
21.20372022,1964
21.21458666,2001
21.2254531,1946
21.23631954,2017
21.24718598,1977
21.25805242,2032
21.26891886,1989
21.2797853,1987
21.29065174,1944
21.30151818,1959
21.31238462,2033
21.32325106,1961
21.3341175,1992
21.34498394,1975
21.35585038,2050
21.36671682,1980
21.37758326,2102
21.3884497,2025
21.39931614,1930
21.41018258,2013
21.42104902,1985
21.43191546,2061
21.4427819,2056
21.45364834,2043
21.46451478,1987
21.47538122,1933
21.48624766,2030
21.4971141,2048
21.50798054,2020
21.51884698,1965
21.52971342,2008
21.54057986,2035
21.5514463,2103
21.56231274,1987
21.57317918,1944
21.58404562,2096
21.59491206,1989
21.6057785,1971
21.61664494,2069
21.62751138,2061
21.63837782,2062
21.64924426,2012
21.6601107,2017
21.67097714,2065
21.68184358,1967
21.69271002,1990
21.70357646,1997
21.7144429,2049
21.72530934,2024
21.73617578,2022
21.74704222,1973
21.75790866,1989
21.7687751,1982
21.77964154,1973
21.79050798,1911
21.80137442,1883
21.81224086,1976
21.8231073,1958
21.83397374,1936
21.84484018,1881
21.85570662,1922
21.86657306,1935
21.8774395,2010
21.88830594,1948
21.89917238,1934
21.91003882,1971
21.92090526,1915
21.9317717,1924
21.94263814,2027
21.95350458,1969
21.96437102,1969
21.97523746,2016
21.9861039,1977
21.99697034,2003
22.00783678,1972
22.01870322,1979
22.02956966,2035
22.0404361,1916
22.05130254,2085
22.06216898,1948
22.07303542,2053
22.08390186,2024
22.0947683,1996
22.10563474,2004
22.11650118,1994
22.12736762,1989
22.13823406,1939
22.1491005,2039
22.15996694,1950
22.17083338,1998
22.18169982,2005
22.19256626,1935
22.2034327,2013
22.21429914,2007
22.22516558,2091
22.23603202,1986
22.24689846,2035
22.2577649,2009
22.26863134,2002
22.27949778,1958
22.29036422,2028
22.30123066,1905
22.3120971,1953
22.32296354,1959
22.33382998,2075
22.34469642,1950
22.35556286,2077
22.3664293,2118
22.37729574,2124
22.38816218,2100
22.39902862,2054
22.40989506,2079
22.4207615,2059
22.43162794,2131
22.44249438,2183
22.45336082,2310
22.46422726,2141
22.4750937,2229
22.48596014,2160
22.49682658,2242
22.50769302,2246
22.51855946,2176
22.5294259,2229
22.54029234,2290
22.55115878,2223
22.56202522,2323
22.57289166,2438
22.5837581,2431
22.59462454,2474
22.60549098,2520
22.61635742,2419
22.62722386,2420
22.6380903,2551
22.64895674,2555
22.65982318,2649
22.67068962,2572
22.68155606,2763
22.6924225,2648
22.70328894,2765
22.71415538,2725
22.72502182,2691
22.73588826,2721
22.7467547,2753
22.75762114,2829
22.76848758,2848
22.77935402,2833
22.79022046,3042
22.8010869,2998
22.81195334,3127
22.82281978,3194
22.83368622,3197
22.84455266,3293
22.8554191,3339
22.86628554,3570
22.87715198,3608
22.88801842,3763
22.89888486,3767
22.9097513,3991
22.92061774,4064
22.93148418,4300
22.94235062,4502
22.95321706,4591
22.9640835,4818
22.97494994,4817
22.98581638,4706
22.99668282,4754
23.00754926,4421
23.0184157,4290
23.02928214,3885
23.04014858,3784
23.05101502,3453
23.06188146,3319
23.0727479,3132
23.08361434,2975
23.09448078,2931
23.10534722,2735
23.11621366,2844
23.1270801,2808
23.13794654,2653
23.14881298,2714
23.15967942,2738
23.17054586,2737
23.1814123,2778
23.19227874,2693
23.20314518,2693
23.21401162,2779
23.22487806,2814
23.2357445,2616
23.24661094,2720
23.25747738,2693
23.26834382,2626
23.27921026,2748
23.2900767,2643
23.30094314,2620
23.31180958,2543
23.32267602,2549
23.33354246,2573
23.3444089,2536
23.35527534,2540
23.36614178,2474
23.37700822,2573
23.38787466,2521
23.3987411,2486
23.40960754,2496
23.42047398,2548
23.43134042,2526
23.44220686,2454
23.4530733,2562
23.46393974,2525
23.47480618,2581
23.48567262,2562
23.49653906,2626
23.5074055,2646
23.51827194,2645
23.52913838,2536
23.54000482,2676
23.55087126,2589
23.5617377,2614
23.57260414,2601
23.58347058,2622
23.59433702,2616
23.60520346,2753
23.6160699,2723
23.62693634,2824
23.63780278,2712
23.64866922,2969
23.65953566,2879
23.6704021,2982
23.68126854,3020
23.69213498,3177
23.70300142,3384
23.71386786,3308
23.7247343,3506
23.73560074,3463
23.74646718,3774
23.75733362,3913
23.76820006,3944
23.7790665,4172
23.78993294,4282
23.80079938,4413
23.81166582,4652
23.82253226,4842
23.8333987,5053
23.84426514,5096
23.85513158,5313
23.86599802,5334
23.87686446,5379
23.8877309,5293
23.89859734,4985
23.90946378,4877
23.92033022,4492
23.93119666,4175
23.9420631,3963
23.95292954,3727
23.96379598,3421
23.97466242,3197
23.98552886,3139
23.9963953,2864
24.00726174,2832
24.01812818,2679
24.02899462,2794
24.03986106,2607
24.0507275,2586
24.06159394,2576
24.07246038,2582
24.08332682,2485
24.09419326,2548
24.1050597,2502
24.11592614,2492
24.12679258,2497
24.13765902,2401
24.14852546,2391
24.1593919,2516
24.17025834,2449
24.18112478,2555
24.19199122,2483
24.20285766,2428
24.2137241,2423
24.22459054,2443
24.23545698,2442
24.24632342,2465
24.25718986,2432
24.2680563,2497
24.27892274,2544
24.28978918,2467
24.30065562,2404
24.31152206,2459
24.3223885,2452
24.33325494,2452
24.34412138,2485
24.35498782,2552
24.36585426,2417
24.3767207,2650
24.38758714,2539
24.39845358,2636
24.40932002,2497
24.42018646,2426
24.4310529,2625
24.44191934,2520
24.45278578,2552
24.46365222,2513
24.47451866,2494
24.4853851,2549
24.49625154,2418
24.50711798,2533
24.51798442,2564
24.52885086,2617
24.5397173,2522
24.55058374,2572
24.56145018,2592
24.57231662,2567
24.58318306,2535
24.5940495,2518
24.60491594,2684
24.61578238,2513
24.62664882,2551
24.63751526,2514
24.6483817,2681
24.65924814,2620
24.67011458,2690
24.68098102,2597
24.69184746,2569
24.7027139,2693
24.71358034,2593
24.72444678,2761
24.73531322,2702
24.74617966,2687
24.7570461,2760
24.76791254,2822
24.77877898,2815
24.78964542,2921
24.80051186,2912
24.8113783,2885
24.82224474,2970
24.83311118,2999
24.84397762,3111
24.85484406,3067
24.8657105,3201
24.87657694,3229
24.88744338,3302
24.89830982,3435
24.90917626,3268
24.9200427,3519
24.93090914,3551
24.94177558,3688
24.95264202,3647
24.96350846,3798
24.9743749,3856
24.98524134,3962
24.99610778,4019
25.00697422,4128
25.01784066,4185
25.0287071,4274
25.03957354,4310
25.05043998,4298
25.06130642,4534
25.07217286,4444
25.0830393,4576
25.09390574,4781
25.10477218,4644
25.11563862,4772
25.12650506,4777
25.1373715,4747
25.14823794,4786
25.15910438,4854
25.16997082,4710
25.18083726,4679
25.1917037,4651
25.20257014,4568
25.21343658,4535
25.22430302,4395
25.23516946,4270
25.2460359,4065
25.25690234,3884
25.26776878,3814
25.27863522,3621
25.28950166,3545
25.3003681,3368
25.31123454,3202
25.32210098,3109
25.33296742,3047
25.34383386,2897
25.3547003,2866
25.36556674,2855
25.37643318,2726
25.38729962,2702
25.39816606,2643
25.4090325,2683
25.41989894,2649
25.43076538,2592
25.44163182,2581
25.45249826,2582
25.4633647,2586
25.47423114,2454
25.48509758,2493
25.49596402,2408
25.50683046,2396
25.5176969,2468
25.52856334,2348
25.53942978,2363
25.55029622,2326
25.56116266,2352
25.5720291,2384
25.58289554,2333
25.59376198,2416
25.60462842,2333
25.61549486,2395
25.6263613,2323
25.63722774,2378
25.64809418,2211
25.65896062,2273
25.66982706,2245
25.6806935,2280
25.69155994,2335
25.70242638,2313
25.71329282,2309
25.72415926,2327
25.7350257,2287
25.74589214,2345
25.75675858,2283
25.76762502,2276
25.77849146,2293
25.7893579,2331
25.80022434,2347
25.81109078,2300
25.82195722,2342
25.83282366,2380
25.8436901,2308
25.85455654,2360
25.86542298,2390
25.87628942,2446
25.88715586,2420
25.8980223,2535
25.90888874,2564
25.91975518,2578
25.93062162,2585
25.94148806,2691
25.9523545,2703
25.96322094,2775
25.97408738,2835
25.98495382,2911
25.99582026,3080
26.0066867,3170
26.01755314,3449
26.02841958,3433
26.03928602,3584
26.05015246,3739
26.0610189,3832
26.07188534,3960
26.08275178,3895
26.09361822,3712
26.10448466,3700
26.1153511,3376
26.12621754,3335
26.13708398,3176
26.14795042,3086
26.15881686,2814
26.1696833,2734
26.18054974,2607
26.19141618,2439
26.20228262,2300
26.21314906,2364
26.2240155,2237
26.23488194,2266
26.24574838,2212
26.25661482,2162
26.26748126,2191
26.2783477,2141
26.28921414,2247
26.30008058,2128
26.31094702,2147
26.32181346,2083
26.3326799,2128
26.34354634,2157
26.35441278,2143
26.36527922,2164
26.37614566,2144
26.3870121,2040
26.39787854,2121
26.40874498,2103
26.41961142,2226
26.43047786,2004
26.4413443,2085
26.45221074,2127
26.46307718,2130
26.47394362,2079
26.48481006,2144
26.4956765,2091
26.50654294,2081
26.51740938,2048
26.52827582,2069
26.53914226,2024
26.5500087,2179
26.56087514,2019
26.57174158,2154
26.58260802,2085
26.59347446,2101
26.6043409,2157
26.61520734,2065
26.62607378,2158
26.63694022,2061
26.64780666,2050
26.6586731,2015
26.66953954,2130
26.68040598,2060
26.69127242,2121
26.70213886,2109
26.7130053,2098
26.72387174,2203
26.73473818,2126
26.74560462,2023
26.75647106,2190
26.7673375,2111
26.77820394,2101
26.78907038,2123
26.79993682,2189
26.81080326,2259
26.8216697,2071
26.83253614,2134
26.84340258,2149
26.85426902,2140
26.86513546,2182
26.8760019,2231
26.88686834,2144
26.89773478,2136
26.90860122,2204
26.91946766,2197
26.9303341,2164
26.94120054,2145
26.95206698,2247
26.96293342,2257
26.97379986,2248
26.9846663,2407
26.99553274,2339
27.00639918,2429
27.01726562,2384
27.02813206,2455
27.0389985,2460
27.04986494,2445
27.06073138,2481
27.07159782,2451
27.08246426,2434
27.0933307,2436
27.10419714,2385
27.11506358,2391
27.12593002,2314
27.13679646,2404
27.1476629,2302
27.15852934,2364
27.16939578,2289
27.18026222,2231
27.19112866,2260
27.2019951,2314
27.21286154,2253
27.22372798,2247
27.23459442,2275
27.24546086,2165
27.2563273,2180
27.26719374,2233
27.27806018,2261
27.28892662,2256
27.29979306,2284
27.3106595,2203
27.32152594,2251
27.33239238,2315
27.34325882,2202
27.35412526,2242
27.3649917,2279
27.37585814,2210
27.38672458,2303
27.39759102,2318
27.40845746,2250
27.4193239,2317
27.43019034,2328
27.44105678,2283
27.45192322,2344
27.46278966,2290
27.4736561,2395
27.48452254,2414
27.49538898,2368
27.50625542,2400
27.51712186,2452
27.5279883,2392
27.53885474,2475
27.54972118,2444
27.56058762,2474
27.57145406,2484
27.5823205,2506
27.59318694,2526
27.60405338,2603
27.61491982,2489
27.62578626,2507
27.6366527,2418
27.64751914,2534
27.65838558,2510
27.66925202,2448
27.68011846,2599
27.6909849,2502
27.70185134,2558
27.71271778,2542
27.72358422,2577
27.73445066,2629
27.7453171,2512
27.75618354,2554
27.76704998,2602
27.77791642,2702
27.78878286,2593
27.7996493,2571
27.81051574,2543
27.82138218,2544
27.83224862,2577
27.84311506,2545
27.8539815,2546
27.86484794,2517
27.87571438,2391
27.88658082,2423
27.89744726,2404
27.9083137,2395
27.91918014,2446
27.93004658,2392
27.94091302,2406
27.95177946,2566
27.9626459,2410
27.97351234,2529
27.98437878,2417
27.99524522,2547
28.00611166,2563
28.0169781,2517
28.02784454,2548
28.03871098,2549
28.04957742,2606
28.06044386,2504
28.0713103,2564
28.08217674,2454
28.09304318,2636
28.10390962,2530
28.11477606,2602
28.1256425,2588
28.13650894,2494
28.14737538,2554
28.15824182,2601
28.16910826,2512
28.1799747,2618
28.19084114,2535
28.20170758,2534
28.21257402,2582
28.22344046,2630
28.2343069,2535
28.24517334,2640
28.25603978,2606
28.26690622,2569
28.27777266,2598
28.2886391,2642
28.29950554,2679
28.31037198,2591
28.32123842,2670
28.33210486,2735
28.3429713,2773
28.35383774,2758
28.36470418,2807
28.37557062,2746
28.38643706,2792
28.3973035,2925
28.40816994,2951
28.41903638,2992
28.42990282,3027
28.44076926,3022
28.4516357,3106
28.46250214,3160
28.47336858,3235
28.48423502,3261
28.49510146,3253
28.5059679,3262
28.51683434,3331
28.52770078,3382
28.53856722,3341
28.54943366,3457
28.5603001,3376
28.57116654,3486
28.58203298,3481
28.59289942,3545
28.60376586,3564
28.6146323,3588
28.62549874,3502
28.63636518,3410
28.64723162,3454
28.65809806,3475
28.6689645,3360
28.67983094,3437
28.69069738,3217
28.70156382,3324
28.71243026,3140
28.7232967,3085
28.73416314,3029
28.74502958,2959
28.75589602,2952
28.76676246,2851
28.7776289,2868
28.78849534,2756
28.79936178,2702
28.81022822,2788
28.82109466,2686
28.8319611,2732
28.84282754,2587
28.85369398,2570
28.86456042,2585
28.87542686,2654
28.8862933,2594
28.89715974,2596
28.90802618,2585
28.91889262,2537
28.92975906,2491
28.9406255,2572
28.95149194,2496
28.96235838,2490
28.97322482,2477
28.98409126,2524
28.9949577,2478
29.00582414,2481
29.01669058,2419
29.02755702,2389
29.03842346,2419
29.0492899,2439
29.06015634,2427
29.07102278,2449
29.08188922,2381
29.09275566,2410
29.1036221,2411
29.11448854,2427
29.12535498,2408
29.13622142,2359
29.14708786,2282
29.1579543,2351
29.16882074,2298
29.17968718,2317
29.19055362,2239
29.20142006,2313
29.2122865,2192
29.22315294,2283
29.23401938,2144
29.24488582,2179
29.25575226,2188
29.2666187,2115
29.27748514,2117
29.28835158,2129
29.29921802,2239
29.31008446,2233
29.3209509,2180
29.33181734,2248
29.34268378,2170
29.35355022,2139
29.36441666,2187
29.3752831,2145
29.38614954,2109
29.39701598,2112
29.40788242,2112
29.41874886,2207
29.4296153,2106
29.44048174,2194
29.45134818,2161
29.46221462,2149
29.47308106,2202
29.4839475,2268
29.49481394,2181
29.50568038,2263
29.51654682,2205
29.52741326,2130
29.5382797,2239
29.54914614,2243
29.56001258,2160
29.57087902,2280
29.58174546,2255
29.5926119,2150
29.60347834,2347
29.61434478,2287
29.62521122,2173
29.63607766,2285
29.6469441,2139
29.65781054,2278
29.66867698,2227
29.67954342,2153
29.69040986,2274
29.7012763,2082
29.71214274,2144
29.72300918,2063
29.73387562,2238
29.74474206,2161
29.7556085,2066
29.76647494,2154
29.77734138,2089
29.78820782,2130
29.79907426,2139
29.8099407,2111
29.82080714,2047
29.83167358,2108
29.84254002,2077
29.85340646,2223
29.8642729,2159
29.87513934,2187
29.88600578,2188
29.89687222,2157
29.90773866,2127
29.9186051,2189
29.92947154,2155
29.94033798,2147
29.95120442,2138
29.96207086,2149
29.9729373,2211
29.98380374,2199
29.99467018,2139
