"Angle","Counts"
3.00243322,24683
3.01329966,24556
3.0241661,24575
3.03503254,24165
3.04589898,23915
3.05676542,23291
3.06763186,23204
3.0784983,22919
3.08936474,22797
3.10023118,22666
3.11109762,22315
3.12196406,22203
3.1328305,21907
3.14369694,21557
3.15456338,21669
3.16542982,20986
3.17629626,20830
3.1871627,21021
3.19802914,20538
3.20889558,20422
3.21976202,20103
3.23062846,19939
3.2414949,19788
3.25236134,19539
3.26322778,19312
3.27409422,18939
3.28496066,18718
3.2958271,18801
3.30669354,18828
3.31755998,18625
3.32842642,18215
3.33929286,18060
3.3501593,17804
3.36102574,18018
3.37189218,17592
3.38275862,17568
3.39362506,17276
3.4044915,17050
3.41535794,17025
3.42622438,16725
3.43709082,16734
3.44795726,16470
3.4588237,16228
3.46969014,16375
3.48055658,16110
3.49142302,15951
3.50228946,15904
3.5131559,15986
3.52402234,15546
3.53488878,15460
3.54575522,15395
3.55662166,15275
3.5674881,15104
3.57835454,15026
3.58922098,14867
3.60008742,14808
3.61095386,14227
3.6218203,14538
3.63268674,14206
3.64355318,14242
3.65441962,14206
3.66528606,14010
3.6761525,13785
3.68701894,13860
3.69788538,13651
3.70875182,13534
3.71961826,13608
3.7304847,13455
3.74135114,13307
3.75221758,13098
3.76308402,13177
3.77395046,13050
3.7848169,12908
3.79568334,12800
3.80654978,12784
3.81741622,12667
3.82828266,12434
3.8391491,12322
3.85001554,12308
3.86088198,12488
3.87174842,12000
3.88261486,11970
3.8934813,11986
3.90434774,11843
3.91521418,11807
3.92608062,11784
3.93694706,11621
3.9478135,11551
3.95867994,11595
3.96954638,11266
3.98041282,11047
3.99127926,11210
4.0021457,11024
4.01301214,11334
4.02387858,11007
4.03474502,10808
4.04561146,10825
4.0564779,10869
4.06734434,10789
4.07821078,10810
4.08907722,10630
4.09994366,10612
4.1108101,10666
4.12167654,10346
4.13254298,10460
4.14340942,10358
4.15427586,10225
4.1651423,10157
4.17600874,10236
4.18687518,10033
4.19774162,10039
4.20860806,9974
4.2194745,9751
4.23034094,9614
4.24120738,9658
4.25207382,9712
4.26294026,9492
4.2738067,9574
4.28467314,9580
4.29553958,9458
4.30640602,9453
4.31727246,9381
4.3281389,9140
4.33900534,9247
4.34987178,9434
4.36073822,9180
4.37160466,9241
4.3824711,8974
4.39333754,9053
4.40420398,8997
4.41507042,9170
4.42593686,9055
4.4368033,8812
4.44766974,8945
4.45853618,8802
4.46940262,8841
4.48026906,8752
4.4911355,8699
4.50200194,8552
4.51286838,8591
4.52373482,8468
4.53460126,8545
4.5454677,8717
4.55633414,8378
4.56720058,8266
4.57806702,8402
4.58893346,8334
4.5997999,8222
4.61066634,8101
4.62153278,8238
4.63239922,8311
4.64326566,8138
4.6541321,8179
4.66499854,8081
4.67586498,8026
4.68673142,8083
4.69759786,7965
4.7084643,7940
4.71933074,7977
4.73019718,7922
4.74106362,8029
4.75193006,7873
4.7627965,7955
4.77366294,7817
4.78452938,7848
4.79539582,7692
4.80626226,7888
4.8171287,7554
4.82799514,7778
4.83886158,7960
4.84972802,7626
4.86059446,7493
4.8714609,7666
4.88232734,7706
4.89319378,7605
4.90406022,7513
4.91492666,7516
4.9257931,7449
4.93665954,7563
4.94752598,7342
4.95839242,7520
4.96925886,7441
4.9801253,7335
4.99099174,7251
5.00185818,7386
5.01272462,7367
5.02359106,7272
5.0344575,7233
5.04532394,7186
5.05619038,7331
5.06705682,7262
5.07792326,7293
5.0887897,7008
5.09965614,7266
5.11052258,7269
5.12138902,7289
5.13225546,7107
5.1431219,7140
5.15398834,7148
5.16485478,7078
5.17572122,7069
5.18658766,7050
5.1974541,7225
5.20832054,7048
5.21918698,7187
5.23005342,7133
5.24091986,7028
5.2517863,7104
5.26265274,6980
5.27351918,7110
5.28438562,6897
5.29525206,7048
5.3061185,6985
5.31698494,6965
5.32785138,6849
5.33871782,6982
5.34958426,7029
5.3604507,6828
5.37131714,6915
5.38218358,6746
5.39305002,7013
5.40391646,6800
5.4147829,6997
5.42564934,6808
5.43651578,6887
5.44738222,6863
5.45824866,6924
5.4691151,6958
5.47998154,6875
5.49084798,6875
5.50171442,6860
5.51258086,6871
5.5234473,6738
5.53431374,6924
5.54518018,6903
5.55604662,6872
5.56691306,6855
5.5777795,6690
5.58864594,6965
5.59951238,6728
5.61037882,6750
5.62124526,6908
5.6321117,6730
5.64297814,6857
5.65384458,6881
5.66471102,6932
5.67557746,6938
5.6864439,6789
5.69731034,6667
5.70817678,6971
5.71904322,6623
5.72990966,6702
5.7407761,6759
5.75164254,6856
5.76250898,6816
5.77337542,6793
5.78424186,6818
5.7951083,6734
5.80597474,6792
5.81684118,6820
5.82770762,6681
5.83857406,6845
5.8494405,6877
5.86030694,6767
5.87117338,6785
5.88203982,6793
5.89290626,6732
5.9037727,6900
5.91463914,6829
5.92550558,6830
5.93637202,6841
5.94723846,6795
5.9581049,6984
5.96897134,6887
5.97983778,6846
5.99070422,6704
6.00157066,6833
6.0124371,6948
6.02330354,6900
6.03416998,6879
6.04503642,6724
6.05590286,6903
6.0667693,6861
6.07763574,6851
6.08850218,6885
6.09936862,6919
6.11023506,6888
6.1211015,6806
6.13196794,6934
6.14283438,6854
6.15370082,6788
6.16456726,6939
6.1754337,6782
6.18630014,6792
6.19716658,6941
6.20803302,6963
6.21889946,6931
6.2297659,6945
6.24063234,6924
6.25149878,7023
6.26236522,6804
6.27323166,6928
6.2840981,6989
6.29496454,6875
6.30583098,6843
6.31669742,6895
6.32756386,6824
6.3384303,7017
6.34929674,7017
6.36016318,6979
6.37102962,7111
6.38189606,6975
6.3927625,6940
6.40362894,6947
6.41449538,6850
6.42536182,6873
6.43622826,7061
6.4470947,6958
6.45796114,6951
6.46882758,7194
6.47969402,6929
6.49056046,7001
6.5014269,6908
6.51229334,7102
6.52315978,7009
6.53402622,6963
6.54489266,6868
6.5557591,7044
6.56662554,6895
6.57749198,7132
6.58835842,6981
6.59922486,7024
6.6100913,7054
6.62095774,7153
6.63182418,6961
6.64269062,7116
6.65355706,7031
6.6644235,7038
6.67528994,6931
6.68615638,6869
6.69702282,7014
6.70788926,6972
6.7187557,7086
6.72962214,7055
6.74048858,7115
6.75135502,7145
6.76222146,7072
6.7730879,7034
6.78395434,6842
6.79482078,7080
6.80568722,7032
6.81655366,7033
6.8274201,7095
6.83828654,7011
6.84915298,7139
6.86001942,6962
6.87088586,7109
6.8817523,7089
6.89261874,7211
6.90348518,7180
6.91435162,7137
6.92521806,7086
6.9360845,7176
6.94695094,7063
6.95781738,7189
6.96868382,7051
6.97955026,7041
6.9904167,7181
7.00128314,7160
7.01214958,7060
7.02301602,7102
7.03388246,7160
7.0447489,7198
7.05561534,7281
7.06648178,7183
7.07734822,7073
7.08821466,7092
7.0990811,7117
7.10994754,7130
7.12081398,7130
7.13168042,7164
7.14254686,7031
7.1534133,7129
7.16427974,7206
7.17514618,7186
7.18601262,7048
7.19687906,7272
7.2077455,7366
7.21861194,7086
7.22947838,7088
7.24034482,7324
7.25121126,7146
7.2620777,7047
7.27294414,7285
7.28381058,7121
7.29467702,7336
7.30554346,7313
7.3164099,7269
7.32727634,7183
7.33814278,7169
7.34900922,7215
7.35987566,7253
7.3707421,7324
7.38160854,7274
7.39247498,7299
7.40334142,7317
7.41420786,7322
7.4250743,7139
7.43594074,7186
7.44680718,7392
7.45767362,7200
7.46854006,7344
7.4794065,7413
7.49027294,7361
7.50113938,7300
7.51200582,7295
7.52287226,7409
7.5337387,7269
7.54460514,7276
7.55547158,7332
7.56633802,7427
7.57720446,7445
7.5880709,7567
7.59893734,7439
7.60980378,7326
7.62067022,7562
7.63153666,7294
7.6424031,7348
7.65326954,7438
7.66413598,7308
7.67500242,7424
7.68586886,7523
7.6967353,7290
7.70760174,7314
7.71846818,7272
7.72933462,7314
7.74020106,7224
7.7510675,7235
7.76193394,7376
7.77280038,7483
7.78366682,7414
7.79453326,7521
7.8053997,7344
7.81626614,7381
7.82713258,7430
7.83799902,7532
7.84886546,7403
7.8597319,7427
7.87059834,7519
7.88146478,7568
7.89233122,7581
7.90319766,7564
7.9140641,7358
7.92493054,7566
7.93579698,7610
7.94666342,7619
7.95752986,7575
7.9683963,7498
7.97926274,7534
7.99012918,7656
8.00099562,7696
8.01186206,7550
8.0227285,7563
8.03359494,7548
8.04446138,7489
8.05532782,7680
8.06619426,7493
8.0770607,7777
8.08792714,7579
8.09879358,7823
8.10966002,7601
8.12052646,7597
8.1313929,7649
8.14225934,7670
8.15312578,7854
8.16399222,7653
8.17485866,7533
8.1857251,7536
8.19659154,7574
8.20745798,7835
8.21832442,7726
8.22919086,7784
8.2400573,7742
8.25092374,7658
8.26179018,7783
8.27265662,7736
8.28352306,7623
8.2943895,7632
8.30525594,7872
8.31612238,7776
8.32698882,7680
8.33785526,7792
8.3487217,7728
8.35958814,7848
8.37045458,7687
8.38132102,7809
8.39218746,7914
8.4030539,7935
8.41392034,7888
8.42478678,7855
8.43565322,7697
8.44651966,7802
8.4573861,7943
8.46825254,7864
8.47911898,8066
8.48998542,7920
8.50085186,7956
8.5117183,7747
8.52258474,7940
8.53345118,7784
8.54431762,7871
8.55518406,7869
8.5660505,7869
8.57691694,7733
8.58778338,7883
8.59864982,7915
8.60951626,7831
8.6203827,7938
8.63124914,7970
8.64211558,8045
8.65298202,7893
8.66384846,7968
8.6747149,8122
8.68558134,8220
8.69644778,7891
8.70731422,7894
8.71818066,8035
8.7290471,7958
8.73991354,8103
8.75077998,8160
8.76164642,8054
8.77251286,8125
8.7833793,7949
8.79424574,7881
8.80511218,8230
8.81597862,8068
8.82684506,8149
8.8377115,8046
8.84857794,8171
8.85944438,8187
8.87031082,8048
8.88117726,8118
8.8920437,8209
8.90291014,8215
8.91377658,8213
8.92464302,8227
8.93550946,8404
8.9463759,8280
8.95724234,8200
8.96810878,8202
8.97897522,8352
8.98984166,8374
9.0007081,8252
9.01157454,8224
9.02244098,8453
9.03330742,8182
9.04417386,8368
9.0550403,8380
9.06590674,8242
9.07677318,8328
9.08763962,8182
9.09850606,8266
9.1093725,8214
9.12023894,8321
9.13110538,8255
9.14197182,8512
9.15283826,8394
9.1637047,8371
9.17457114,8500
9.18543758,8518
9.19630402,8567
9.20717046,8438
9.2180369,8526
9.22890334,8507
9.23976978,8500
9.25063622,8403
9.26150266,8745
9.2723691,8451
9.28323554,8383
9.29410198,8625
9.30496842,8664
9.31583486,8607
9.3267013,8587
9.33756774,8588
9.34843418,8519
9.35930062,8656
9.37016706,8737
9.3810335,8780
9.39189994,8581
9.40276638,8726
9.41363282,8701
9.42449926,8760
9.4353657,8633
9.44623214,8648
9.45709858,8757
9.46796502,8779
9.47883146,8992
9.4896979,8886
9.50056434,9008
9.51143078,8997
9.52229722,8789
9.53316366,8984
9.5440301,8910
9.55489654,8851
9.56576298,9084
9.57662942,9024
9.58749586,9133
9.5983623,9111
9.60922874,9186
9.62009518,9235
9.63096162,9092
9.64182806,9111
9.6526945,9238
9.66356094,9231
9.67442738,9269
9.68529382,9304
9.69616026,9177
9.7070267,9434
9.71789314,9456
9.72875958,9355
9.73962602,9584
9.75049246,9518
9.7613589,9733
9.77222534,9611
9.78309178,9640
9.79395822,9596
9.80482466,9677
9.8156911,9840
9.82655754,9579
9.83742398,9718
9.84829042,9661
9.85915686,9877
9.8700233,9826
9.88088974,10048
9.89175618,9963
9.90262262,10042
9.91348906,9690
9.9243555,9809
9.93522194,9583
9.94608838,9616
9.95695482,9449
9.96782126,9439
9.9786877,9439
9.98955414,9324
10.00042058,9535
10.01128702,9136
10.02215346,9275
10.0330199,9298
10.04388634,9111
10.05475278,8966
10.06561922,9108
10.07648566,8905
10.0873521,8892
10.09821854,9037
10.10908498,8822
10.11995142,8732
10.13081786,8796
10.1416843,8672
10.15255074,8638
10.16341718,8651
10.17428362,8736
10.18515006,8446
10.1960165,8635
10.20688294,8456
10.21774938,8698
10.22861582,8248
10.23948226,8508
10.2503487,8621
10.26121514,8381
10.27208158,8539
10.28294802,8563
10.29381446,8420
10.3046809,8346
10.31554734,8382
10.32641378,8505
10.33728022,8384
10.34814666,8323
10.3590131,8350
10.36987954,8342
10.38074598,8383
10.39161242,8256
10.40247886,8274
10.4133453,8102
10.42421174,8357
10.43507818,8157
10.44594462,8283
10.45681106,8288
10.4676775,8184
10.47854394,8177
10.48941038,8192
10.50027682,8078
10.51114326,8190
10.5220097,8193
10.53287614,8238
10.54374258,8199
10.55460902,8170
10.56547546,8052
10.5763419,8289
10.58720834,8142
10.59807478,8023
10.60894122,8063
10.61980766,8157
10.6306741,8052
10.64154054,7998
10.65240698,7948
10.66327342,7972
10.67413986,8003
10.6850063,7756
10.69587274,7827
10.70673918,7771
10.71760562,7816
10.72847206,7885
10.7393385,7808
10.75020494,7690
10.76107138,7853
10.77193782,7701
10.78280426,7694
10.7936707,7669
10.80453714,7707
10.81540358,7673
10.82627002,7558
10.83713646,7657
10.8480029,7721
10.85886934,7593
10.86973578,7633
10.88060222,7605
10.89146866,7634
10.9023351,7622
10.91320154,7539
10.92406798,7400
10.93493442,7451
10.94580086,7384
10.9566673,7462
10.96753374,7381
10.97840018,7570
10.98926662,7248
11.00013306,7445
11.0109995,7475
11.02186594,7428
11.03273238,7141
11.04359882,7404
11.05446526,7284
11.0653317,7287
11.07619814,7259
11.08706458,7328
11.09793102,7210
11.10879746,7155
11.1196639,7353
11.13053034,7504
11.14139678,7378
11.15226322,7219
11.16312966,7142
11.1739961,7253
11.18486254,7229
11.19572898,7244
11.20659542,7114
11.21746186,7148
11.2283283,7001
11.23919474,7154
11.25006118,7131
11.26092762,7273
11.27179406,7023
11.2826605,7208
11.29352694,7017
11.30439338,7147
11.31525982,7003
11.32612626,6971
11.3369927,6990
11.34785914,6843
11.35872558,7044
11.36959202,6924
11.38045846,6984
11.3913249,6931
11.40219134,6938
11.41305778,7035
11.42392422,6851
11.43479066,6819
11.4456571,7044
11.45652354,7112
11.46738998,7008
11.47825642,6811
11.48912286,6933
11.4999893,6952
11.51085574,6780
11.52172218,6784
11.53258862,6790
11.54345506,6804
11.5543215,6888
11.56518794,6884
11.57605438,6847
11.58692082,6653
11.59778726,6860
11.6086537,6720
11.61952014,6820
11.63038658,6833
11.64125302,6828
11.65211946,6746
11.6629859,6842
11.67385234,6825
11.68471878,6804
11.69558522,6666
11.70645166,6771
11.7173181,6650
11.72818454,6730
11.73905098,6710
11.74991742,6597
11.76078386,6724
11.7716503,6608
11.78251674,6830
11.79338318,6630
11.80424962,6741
11.81511606,6656
11.8259825,6682
11.83684894,6632
11.84771538,6558
11.85858182,6579
11.86944826,6440
11.8803147,6534
11.89118114,6540
11.90204758,6451
11.91291402,6681
11.92378046,6558
11.9346469,6515
11.94551334,6541
11.95637978,6726
11.96724622,6617
11.97811266,6567
11.9889791,6549
11.99984554,6540
12.01071198,6575
12.02157842,6643
12.03244486,6450
12.0433113,6612
12.05417774,6460
12.06504418,6669
12.07591062,6422
12.08677706,6652
12.0976435,6575
12.10850994,6436
12.11937638,6675
12.13024282,6587
12.14110926,6624
12.1519757,6630
12.16284214,6477
12.17370858,6691
12.18457502,6642
12.19544146,6660
12.2063079,6638
12.21717434,6602
12.22804078,6597
12.23890722,6464
12.24977366,6367
12.2606401,6488
12.27150654,6479
12.28237298,6475
12.29323942,6693
12.30410586,6473
12.3149723,6647
12.32583874,6428
12.33670518,6655
12.34757162,6703
12.35843806,6520
12.3693045,6718
12.38017094,6483
12.39103738,6641
12.40190382,6617
12.41277026,6622
12.4236367,6558
12.43450314,6588
12.44536958,6564
12.45623602,6724
12.46710246,6499
12.4779689,6699
12.48883534,6654
12.49970178,6862
12.51056822,6865
12.52143466,6811
12.5323011,6539
12.54316754,6533
12.55403398,6626
12.56490042,6558
12.57576686,6743
12.5866333,6697
12.59749974,6853
12.60836618,6646
12.61923262,6735
12.63009906,6861
12.6409655,6563
12.65183194,6654
12.66269838,6647
12.67356482,6707
12.68443126,6761
12.6952977,6779
12.70616414,6880
12.71703058,6859
12.72789702,6833
12.73876346,6672
12.7496299,6847
12.76049634,6951
12.77136278,6794
12.78222922,6780
12.79309566,6733
12.8039621,6822
12.81482854,6867
12.82569498,6962
12.83656142,7108
12.84742786,6802
12.8582943,6851
12.86916074,7007
12.88002718,7065
12.89089362,7009
12.90176006,7107
12.9126265,7065
12.92349294,6988
12.93435938,6890
12.94522582,7054
12.95609226,7094
12.9669587,7117
12.97782514,7127
12.98869158,7073
12.99955802,7213
13.01042446,7170
13.0212909,7278
13.03215734,7287
13.04302378,7209
13.05389022,7363
13.06475666,7251
13.0756231,7389
13.08648954,7316
13.09735598,7465
13.10822242,7625
13.11908886,7413
13.1299553,7492
13.14082174,7496
13.15168818,7545
13.16255462,7524
13.17342106,7725
13.1842875,7759
13.19515394,7766
13.20602038,7876
13.21688682,7943
13.22775326,7958
13.2386197,7986
13.24948614,7906
13.26035258,7991
13.27121902,8052
13.28208546,8084
13.2929519,8244
13.30381834,8350
13.31468478,8435
13.32555122,8504
13.33641766,8550
13.3472841,8576
13.35815054,8597
13.36901698,8587
13.37988342,8794
13.39074986,9002
13.4016163,8912
13.41248274,9191
13.42334918,8998
13.43421562,9235
13.44508206,9367
13.4559485,9537
13.46681494,9760
13.47768138,9539
13.48854782,9874
13.49941426,10012
13.5102807,10115
13.52114714,10275
13.53201358,10176
13.54288002,10446
13.55374646,10654
13.5646129,10984
13.57547934,11274
13.58634578,11422
13.59721222,11352
13.60807866,11666
13.6189451,11859
13.62981154,12123
13.64067798,12387
13.65154442,12225
13.66241086,12984
13.6732773,13253
13.68414374,13634
13.69501018,13733
13.70587662,13905
13.71674306,14255
13.7276095,14699
13.73847594,14975
13.74934238,15082
13.76020882,15771
13.77107526,16081
13.7819417,16511
13.79280814,16763
13.80367458,17389
13.81454102,17679
13.82540746,17919
13.8362739,18217
13.84714034,18547
13.85800678,19236
13.86887322,19606
13.87973966,20010
13.8906061,20197
13.90147254,20288
13.91233898,21077
13.92320542,21141
13.93407186,21285
13.9449383,21774
13.95580474,21878
13.96667118,21710
13.97753762,21943
13.98840406,21739
13.9992705,21533
14.01013694,21438
14.02100338,20825
14.03186982,20322
14.04273626,19689
14.0536027,19159
14.06446914,18300
14.07533558,17394
14.08620202,16752
14.09706846,15875
14.1079349,15352
14.11880134,14293
14.12966778,13753
14.14053422,13213
14.15140066,12658
14.1622671,11902
14.17313354,11334
14.18399998,10961
14.19486642,10488
14.20573286,10037
14.2165993,9923
14.22746574,9484
14.23833218,9062
14.24919862,8959
14.26006506,8698
14.2709315,8474
14.28179794,8178
14.29266438,8013
14.30353082,7748
14.31439726,7460
14.3252637,7331
14.33613014,7072
14.34699658,6932
14.35786302,6918
14.36872946,6831
14.3795959,6645
14.39046234,6568
14.40132878,6304
14.41219522,6359
14.42306166,6129
14.4339281,6125
14.44479454,5812
14.45566098,5925
14.46652742,6009
14.47739386,5814
14.4882603,5645
14.49912674,5487
14.50999318,5504
14.52085962,5336
14.53172606,5389
14.5425925,5295
14.55345894,5278
14.56432538,5131
14.57519182,5159
14.58605826,5138
14.5969247,5100
14.60779114,5039
14.61865758,4884
14.62952402,4981
14.64039046,4803
14.6512569,4721
14.66212334,4688
14.67298978,4687
14.68385622,4748
14.69472266,4696
14.7055891,4527
14.71645554,4524
14.72732198,4526
14.73818842,4506
14.74905486,4513
14.7599213,4365
14.77078774,4361
14.78165418,4248
14.79252062,4299
14.80338706,4499
14.8142535,4258
14.82511994,4247
14.83598638,4306
14.84685282,4197
14.85771926,4174
14.8685857,4113
14.87945214,3979
14.89031858,4067
14.90118502,4076
14.91205146,4182
14.9229179,4169
14.93378434,4071
14.94465078,3900
14.95551722,4055
14.96638366,3961
14.9772501,4014
14.98811654,3941
14.99898298,3988
15.00984942,3921
15.02071586,3865
15.0315823,3811
15.04244874,3793
15.05331518,3712
15.06418162,3848
15.07504806,3839
15.0859145,3755
15.09678094,3756
15.10764738,3644
15.11851382,3717
15.12938026,3664
15.1402467,3673
15.15111314,3682
15.16197958,3731
15.17284602,3652
15.18371246,3665
15.1945789,3656
15.20544534,3568
15.21631178,3687
15.22717822,3607
15.23804466,3600
15.2489111,3703
15.25977754,3591
15.27064398,3580
15.28151042,3545
15.29237686,3434
15.3032433,3489
15.31410974,3468
15.32497618,3442
15.33584262,3455
15.34670906,3468
15.3575755,3451
15.36844194,3452
15.37930838,3448
15.39017482,3452
15.40104126,3439
15.4119077,3343
15.42277414,3394
15.43364058,3463
15.44450702,3443
15.45537346,3355
15.4662399,3481
15.47710634,3348
15.48797278,3456
15.49883922,3299
15.50970566,3426
15.5205721,3422
15.53143854,3309
15.54230498,3302
15.55317142,3432
15.56403786,3294
15.5749043,3400
15.58577074,3220
15.59663718,3238
15.60750362,3255
15.61837006,3216
15.6292365,3204
15.64010294,3273
15.65096938,3269
15.66183582,3210
15.67270226,3290
15.6835687,3213
15.69443514,3103
15.70530158,3218
15.71616802,3297
15.72703446,3190
15.7379009,3347
15.74876734,3188
15.75963378,3226
15.77050022,3245
15.78136666,3231
15.7922331,3160
15.80309954,3265
15.81396598,3210
15.82483242,3169
15.83569886,3161
15.8465653,3256
15.85743174,3135
15.86829818,3177
15.87916462,3085
15.89003106,3129
15.9008975,3089
15.91176394,3095
15.92263038,3110
15.93349682,3228
15.94436326,3104
15.9552297,2988
15.96609614,3135
15.97696258,3067
15.98782902,2987
15.99869546,3099
16.0095619,3116
16.02042834,3045
16.03129478,3134
16.04216122,3103
16.05302766,3103
16.0638941,3091
16.07476054,3056
16.08562698,2988
16.09649342,3033
16.10735986,3007
16.1182263,3041
16.12909274,3033
16.13995918,3070
16.15082562,3000
16.16169206,3056
16.1725585,2972
16.18342494,2938
16.19429138,3034
16.20515782,3066
16.21602426,3028
16.2268907,3040
16.23775714,2991
16.24862358,2975
16.25949002,2930
16.27035646,3027
16.2812229,2955
16.29208934,2950
16.30295578,2933
16.31382222,3015
16.32468866,2910
16.3355551,3001
16.34642154,2957
16.35728798,2911
16.36815442,2941
16.37902086,3066
16.3898873,2869
16.40075374,2892
16.41162018,2911
16.42248662,2838
16.43335306,2937
16.4442195,2852
16.45508594,3040
16.46595238,2970
16.47681882,2904
16.48768526,3006
16.4985517,2927
16.50941814,2813
16.52028458,3034
16.53115102,2858
16.54201746,2857
16.5528839,2847
16.56375034,2907
16.57461678,2854
16.58548322,2807
16.59634966,2842
16.6072161,2811
16.61808254,2818
16.62894898,2880
16.63981542,2915
16.65068186,2743
16.6615483,2840
16.67241474,2797
16.68328118,3032
16.69414762,2811
16.70501406,2728
16.7158805,2840
16.72674694,2843
16.73761338,2815
16.74847982,2918
16.75934626,2874
16.7702127,2668
16.78107914,2769
16.79194558,2876
16.80281202,2774
16.81367846,2777
16.8245449,2733
16.83541134,2841
16.84627778,2853
16.85714422,2741
16.86801066,2722
16.8788771,2772
16.88974354,2796
16.90060998,2800
16.91147642,2771
16.92234286,2811
16.9332093,2708
16.94407574,2871
16.95494218,2740
16.96580862,2759
16.97667506,2742
16.9875415,2763
16.99840794,2721
17.00927438,2783
17.02014082,2739
17.03100726,2788
17.0418737,2733
17.05274014,2804
17.06360658,2805
17.07447302,2725
17.08533946,2841
17.0962059,2808
17.10707234,2677
17.11793878,2707
17.12880522,2720
17.13967166,2828
17.1505381,2849
17.16140454,2783
17.17227098,2748
17.18313742,2752
17.19400386,2766
17.2048703,2769
17.21573674,2754
17.22660318,2811
17.23746962,2742
17.24833606,2790
17.2592025,2760
17.27006894,2736
17.28093538,2679
17.29180182,2776
17.30266826,2725
17.3135347,2726
17.32440114,2805
17.33526758,2636
17.34613402,2732
17.35700046,2630
17.3678669,2748
17.37873334,2666
17.38959978,2742
17.40046622,2697
17.41133266,2773
17.4221991,2635
17.43306554,2764
17.44393198,2617
17.45479842,2660
17.46566486,2606
17.4765313,2735
17.48739774,2710
17.49826418,2736
17.50913062,2735
17.51999706,2614
17.5308635,2721
17.54172994,2664
17.55259638,2702
17.56346282,2717
17.57432926,2723
17.5851957,2739
17.59606214,2741
17.60692858,2691
17.61779502,2678
17.62866146,2709
17.6395279,2640
17.65039434,2751
17.66126078,2649
17.67212722,2695
17.68299366,2703
17.6938601,2591
17.70472654,2746
17.71559298,2709
17.72645942,2678
17.73732586,2635
17.7481923,2638
17.75905874,2623
17.76992518,2630
17.78079162,2653
17.79165806,2587
17.8025245,2744
17.81339094,2620
17.82425738,2677
17.83512382,2651
17.84599026,2670
17.8568567,2599
17.86772314,2730
17.87858958,2629
17.88945602,2555
17.90032246,2754
17.9111889,2643
17.92205534,2631
17.93292178,2695
17.94378822,2678
17.95465466,2545
17.9655211,2543
17.97638754,2785
17.98725398,2618
17.99812042,2701
18.00898686,2688
18.0198533,2653
18.03071974,2693
18.04158618,2599
18.05245262,2587
18.06331906,2697
18.0741855,2644
18.08505194,2577
18.09591838,2728
18.10678482,2635
18.11765126,2579
18.1285177,2760
18.13938414,2643
18.15025058,2624
18.16111702,2694
18.17198346,2548
18.1828499,2613
18.19371634,2606
18.20458278,2661
18.21544922,2514
18.22631566,2724
18.2371821,2532
18.24804854,2726
18.25891498,2626
18.26978142,2628
18.28064786,2539
18.2915143,2608
18.30238074,2599
18.31324718,2638
18.32411362,2650
18.33498006,2697
18.3458465,2659
18.35671294,2643
18.36757938,2611
18.37844582,2627
18.38931226,2650
18.4001787,2683
18.41104514,2588
18.42191158,2714
18.43277802,2569
18.44364446,2601
18.4545109,2581
18.46537734,2677
18.47624378,2647
18.48711022,2624
18.49797666,2517
18.5088431,2673
18.51970954,2568
18.53057598,2706
18.54144242,2698
18.55230886,2621
18.5631753,2625
18.57404174,2593
18.58490818,2598
18.59577462,2542
18.60664106,2592
18.6175075,2554
18.62837394,2558
18.63924038,2625
18.65010682,2585
18.66097326,2555
18.6718397,2720
18.68270614,2566
18.69357258,2649
18.70443902,2620
18.71530546,2655
18.7261719,2596
18.73703834,2548
18.74790478,2596
18.75877122,2568
18.76963766,2570
18.7805041,2663
18.79137054,2567
18.80223698,2597
18.81310342,2648
18.82396986,2535
18.8348363,2572
18.84570274,2581
18.85656918,2600
18.86743562,2615
18.87830206,2599
18.8891685,2629
18.90003494,2707
18.91090138,2554
18.92176782,2519
18.93263426,2654
18.9435007,2592
18.95436714,2593
18.96523358,2567
18.97610002,2571
18.98696646,2604
18.9978329,2534
19.00869934,2574
19.01956578,2545
19.03043222,2476
19.04129866,2540
19.0521651,2572
19.06303154,2614
19.07389798,2590
19.08476442,2541
19.09563086,2681
19.1064973,2493
19.11736374,2585
19.12823018,2552
19.13909662,2683
19.14996306,2606
19.1608295,2605
19.17169594,2604
19.18256238,2667
19.19342882,2595
19.20429526,2558
19.2151617,2616
19.22602814,2591
19.23689458,2574
19.24776102,2634
19.25862746,2620
19.2694939,2632
19.28036034,2637
19.29122678,2617
19.30209322,2604
19.31295966,2618
19.3238261,2499
19.33469254,2613
19.34555898,2500
19.35642542,2584
19.36729186,2627
19.3781583,2598
19.38902474,2657
19.39989118,2651
19.41075762,2579
19.42162406,2468
19.4324905,2559
19.44335694,2690
19.45422338,2612
19.46508982,2741
19.47595626,2618
19.4868227,2650
19.49768914,2626
19.50855558,2661
19.51942202,2521
19.53028846,2603
19.5411549,2617
19.55202134,2613
19.56288778,2554
19.57375422,2603
19.58462066,2624
19.5954871,2621
19.60635354,2721
19.61721998,2585
19.62808642,2617
19.63895286,2669
19.6498193,2604
19.66068574,2572
19.67155218,2583
19.68241862,2645
19.69328506,2618
19.7041515,2602
19.71501794,2708
19.72588438,2654
19.73675082,2690
19.74761726,2747
19.7584837,2575
19.76935014,2660
19.78021658,2707
19.79108302,2722
19.80194946,2568
19.8128159,2695
19.82368234,2657
19.83454878,2636
19.84541522,2632
19.85628166,2608
19.8671481,2693
19.87801454,2670
19.88888098,2670
19.89974742,2658
19.91061386,2694
19.9214803,2723
19.93234674,2762
19.94321318,2652
19.95407962,2711
19.96494606,2683
19.9758125,2734
19.98667894,2760
19.99754538,2713
20.00841182,2736
20.01927826,2717
20.0301447,2708
20.04101114,2745
20.05187758,2687
20.06274402,2823
20.07361046,2858
20.0844769,2777
20.09534334,2918
20.10620978,2857
20.11707622,2866
20.12794266,2918
20.1388091,2925
20.14967554,2812
20.16054198,2933
20.17140842,2933
20.18227486,2977
20.1931413,2960
20.20400774,3067
20.21487418,2948
20.22574062,3150
20.23660706,3105
20.2474735,3087
20.25833994,2959
20.26920638,3008
20.28007282,3058
20.29093926,3039
20.3018057,3063
20.31267214,3036
20.32353858,2936
20.33440502,2951
20.34527146,3003
20.3561379,2888
20.36700434,2925
20.37787078,2938
20.38873722,2810
20.39960366,2874
20.4104701,2771
20.42133654,2830
20.43220298,2714
20.44306942,2812
20.45393586,2764
20.4648023,2806
20.47566874,2575
20.48653518,2718
20.49740162,2719
20.50826806,2696
20.5191345,2672
20.53000094,2730
20.54086738,2658
20.55173382,2694
20.56260026,2701
20.5734667,2745
20.58433314,2717
20.59519958,2675
20.60606602,2645
20.61693246,2701
20.6277989,2628
20.63866534,2622
20.64953178,2654
20.66039822,2566
20.67126466,2696
20.6821311,2681
20.69299754,2695
20.70386398,2617
20.71473042,2704
20.72559686,2664
20.7364633,2614
20.74732974,2664
20.75819618,2703
20.76906262,2523
20.77992906,2536
20.7907955,2545
20.80166194,2645
20.81252838,2515
20.82339482,2512
20.83426126,2607
20.8451277,2540
20.85599414,2598
20.86686058,2607
20.87772702,2653
20.88859346,2653
20.8994599,2517
20.91032634,2561
20.92119278,2594
20.93205922,2536
20.94292566,2606
20.9537921,2553
20.96465854,2578
20.97552498,2600
20.98639142,2598
20.99725786,2535
21.0081243,2528
21.01899074,2505
21.02985718,2564
21.04072362,2587
21.05159006,2483
21.0624565,2567
21.07332294,2548
21.08418938,2555
21.09505582,2577
21.10592226,2527
21.1167887,2642
21.12765514,2459
21.13852158,2568
21.14938802,2527
21.16025446,2529
21.1711209,2464
21.18198734,2548
21.19285378,2440
21.20372022,2555
21.21458666,2509
21.2254531,2521
21.23631954,2545
21.24718598,2496
21.25805242,2554
21.26891886,2498
21.2797853,2584
21.29065174,2491
21.30151818,2548
21.31238462,2524
21.32325106,2516
21.3341175,2539
21.34498394,2540
21.35585038,2605
21.36671682,2480
21.37758326,2558
21.3884497,2493
21.39931614,2547
21.41018258,2526
21.42104902,2519
21.43191546,2573
21.4427819,2471
21.45364834,2468
21.46451478,2486
21.47538122,2438
21.48624766,2483
21.4971141,2544
21.50798054,2472
21.51884698,2558
21.52971342,2529
21.54057986,2587
21.5514463,2551
21.56231274,2534
21.57317918,2468
21.58404562,2456
21.59491206,2494
21.6057785,2513
21.61664494,2513
21.62751138,2481
21.63837782,2569
21.64924426,2676
21.6601107,2461
21.67097714,2548
21.68184358,2384
21.69271002,2535
21.70357646,2465
21.7144429,2504
21.72530934,2464
21.73617578,2515
21.74704222,2431
21.75790866,2520
21.7687751,2478
21.77964154,2463
21.79050798,2532
21.80137442,2485
21.81224086,2493
21.8231073,2456
21.83397374,2556
21.84484018,2426
21.85570662,2486
21.86657306,2435
21.8774395,2450
21.88830594,2421
21.89917238,2382
21.91003882,2531
21.92090526,2492
21.9317717,2541
21.94263814,2434
21.95350458,2481
21.96437102,2600
21.97523746,2495
21.9861039,2520
21.99697034,2429
22.00783678,2425
22.01870322,2572
22.02956966,2503
22.0404361,2502
22.05130254,2551
22.06216898,2499
22.07303542,2565
22.08390186,2574
22.0947683,2451
22.10563474,2628
22.11650118,2534
22.12736762,2519
22.13823406,2495
22.1491005,2595
22.15996694,2615
22.17083338,2612
22.18169982,2585
22.19256626,2598
22.2034327,2707
22.21429914,2620
22.22516558,2577
22.23603202,2719
22.24689846,2546
22.2577649,2641
22.26863134,2722
22.27949778,2692
22.29036422,2698
22.30123066,2760
22.3120971,2738
22.32296354,2732
22.33382998,2724
22.34469642,2758
22.35556286,2780
22.3664293,2760
22.37729574,2670
22.38816218,2776
22.39902862,2691
22.40989506,2809
22.4207615,2809
22.43162794,2756
22.44249438,2879
22.45336082,3037
22.46422726,3020
22.4750937,3053
22.48596014,2806
22.49682658,2903
22.50769302,3074
22.51855946,3060
22.5294259,3082
22.54029234,3080
22.55115878,3165
22.56202522,3173
22.57289166,3062
22.5837581,3201
22.59462454,3143
22.60549098,3189
22.61635742,3241
22.62722386,3170
22.6380903,3250
22.64895674,3279
22.65982318,3196
22.67068962,3335
22.68155606,3268
22.6924225,3225
22.70328894,3356
22.71415538,3340
22.72502182,3196
22.73588826,3357
22.7467547,3308
22.75762114,3273
22.76848758,3356
22.77935402,3452
22.79022046,3336
22.8010869,3308
22.81195334,3414
22.82281978,3381
22.83368622,3351
22.84455266,3357
22.8554191,3314
22.86628554,3384
22.87715198,3307
22.88801842,3205
22.89888486,3425
22.9097513,3305
22.92061774,3241
22.93148418,3291
22.94235062,3217
22.95321706,3192
22.9640835,3329
22.97494994,3155
22.98581638,3119
22.99668282,3149
23.00754926,3250
23.0184157,3181
23.02928214,3159
23.04014858,3260
23.05101502,3205
23.06188146,3183
23.0727479,3183
23.08361434,3171
23.09448078,3149
23.10534722,3164
23.11621366,3092
23.1270801,3097
23.13794654,3104
23.14881298,3142
23.15967942,3206
23.17054586,3084
23.1814123,3130
23.19227874,3133
23.20314518,3083
23.21401162,3068
23.22487806,3028
23.2357445,2999
23.24661094,3175
23.25747738,3166
23.26834382,3120
23.27921026,3116
23.2900767,3194
23.30094314,3039
23.31180958,3063
23.32267602,3083
23.33354246,2964
23.3444089,3073
23.35527534,2978
23.36614178,3012
23.37700822,3004
23.38787466,3117
23.3987411,3057
23.40960754,3062
23.42047398,2979
23.43134042,3115
23.44220686,3181
23.4530733,3111
23.46393974,3057
23.47480618,3090
23.48567262,3044
23.49653906,3005
23.5074055,3042
23.51827194,3086
23.52913838,3038
23.54000482,2993
23.55087126,2942
23.5617377,2982
23.57260414,2999
23.58347058,3111
23.59433702,3017
23.60520346,3124
23.6160699,3136
23.62693634,3026
23.63780278,2962
23.64866922,3013
23.65953566,3095
23.6704021,3076
23.68126854,3160
23.69213498,3051
23.70300142,3230
23.71386786,3010
23.7247343,3054
23.73560074,3201
23.74646718,3057
23.75733362,3130
23.76820006,3295
23.7790665,3157
23.78993294,3302
23.80079938,3316
23.81166582,3290
23.82253226,3420
23.8333987,3284
23.84426514,3302
23.85513158,3426
23.86599802,3326
23.87686446,3456
23.8877309,3361
23.89859734,3473
23.90946378,3569
23.92033022,3399
23.93119666,3451
23.9420631,3428
23.95292954,3234
23.96379598,3231
23.97466242,3231
23.98552886,3193
23.9963953,3058
24.00726174,3106
24.01812818,2955
24.02899462,3021
24.03986106,3093
24.0507275,3009
24.06159394,3066
24.07246038,2989
24.08332682,3049
24.09419326,2929
24.1050597,2960
24.11592614,3045
24.12679258,3082
24.13765902,3007
24.14852546,2950
24.1593919,2900
24.17025834,2954
24.18112478,2952
24.19199122,2986
24.20285766,2921
24.2137241,2943
24.22459054,2926
24.23545698,2959
24.24632342,2954
24.25718986,2976
24.2680563,2970
24.27892274,2935
24.28978918,2820
24.30065562,2879
24.31152206,2906
24.3223885,2861
24.33325494,2899
24.34412138,2868
24.35498782,2919
24.36585426,2803
24.3767207,2913
24.38758714,2907
24.39845358,2806
24.40932002,2850
24.42018646,2970
24.4310529,2911
24.44191934,2885
24.45278578,2947
24.46365222,2824
24.47451866,2895
24.4853851,2907
24.49625154,2917
24.50711798,2819
24.51798442,2762
24.52885086,2880
24.5397173,2887
24.55058374,2817
24.56145018,2861
24.57231662,2780
24.58318306,2732
24.5940495,2796
24.60491594,3045
24.61578238,2889
24.62664882,2867
24.63751526,2850
24.6483817,2945
24.65924814,2877
24.67011458,2754
24.68098102,2958
24.69184746,2914
24.7027139,2832
24.71358034,2897
24.72444678,2882
24.73531322,2818
24.74617966,2946
24.7570461,2920
24.76791254,2818
24.77877898,2866
24.78964542,2943
24.80051186,2862
24.8113783,2823
24.82224474,2880
24.83311118,2823
24.84397762,2824
24.85484406,2870
24.8657105,2963
24.87657694,2923
24.88744338,2896
24.89830982,2829
24.90917626,2913
24.9200427,2863
24.93090914,2984
24.94177558,3018
24.95264202,3015
24.96350846,3109
24.9743749,3027
24.98524134,3068
24.99610778,2975
25.00697422,2994
25.01784066,3017
25.0287071,3031
25.03957354,3069
25.05043998,2979
25.06130642,2976
25.07217286,3088
25.0830393,2909
25.09390574,2930
25.10477218,3067
25.11563862,3269
25.12650506,3078
25.1373715,3127
25.14823794,3180
25.15910438,3052
25.16997082,2997
25.18083726,3052
25.1917037,2954
25.20257014,3137
25.21343658,3001
25.22430302,3064
25.23516946,2981
25.2460359,2978
25.25690234,3131
25.26776878,2921
25.27863522,2982
25.28950166,2976
25.3003681,3016
25.31123454,2921
25.32210098,3045
25.33296742,2923
25.34383386,2955
25.3547003,2955
25.36556674,2955
25.37643318,2936
25.38729962,3030
25.39816606,2874
25.4090325,2800
25.41989894,2821
25.43076538,2760
25.44163182,2966
25.45249826,2807
25.4633647,2791
25.47423114,2926
25.48509758,2802
25.49596402,2910
25.50683046,2878
25.5176969,2885
25.52856334,2915
25.53942978,2777
25.55029622,2775
25.56116266,2804
25.5720291,2845
25.58289554,2939
25.59376198,2905
25.60462842,2833
25.61549486,2805
25.6263613,2961
25.63722774,2781
25.64809418,2950
25.65896062,2891
25.66982706,2760
25.6806935,2947
25.69155994,2869
25.70242638,2851
25.71329282,2935
25.72415926,2876
25.7350257,2820
25.74589214,2852
25.75675858,2932
25.76762502,2859
25.77849146,2847
25.7893579,2827
25.80022434,2949
25.81109078,2897
25.82195722,2872
25.83282366,2861
25.8436901,2785
25.85455654,2934
25.86542298,2898
25.87628942,2896
25.88715586,2857
25.8980223,2861
25.90888874,2887
25.91975518,2788
25.93062162,2891
25.94148806,2920
25.9523545,2844
25.96322094,2849
25.97408738,2852
25.98495382,2950
25.99582026,2880
26.0066867,2719
26.01755314,2915
26.02841958,2781
26.03928602,2804
26.05015246,2861
26.0610189,2817
26.07188534,2885
26.08275178,2793
26.09361822,2894
26.10448466,2924
26.1153511,2847
26.12621754,2859
26.13708398,2808
26.14795042,2755
26.15881686,2872
26.1696833,2846
26.18054974,2839
26.19141618,2844
26.20228262,2861
26.21314906,2990
26.2240155,2950
26.23488194,2945
26.24574838,2963
26.25661482,2836
26.26748126,2817
26.2783477,2843
26.28921414,2855
26.30008058,2829
26.31094702,2760
26.32181346,2900
26.3326799,2848
26.34354634,2983
26.35441278,2791
26.36527922,2897
26.37614566,2906
26.3870121,2937
26.39787854,3010
26.40874498,2915
26.41961142,2958
26.43047786,3016
26.4413443,2937
26.45221074,3025
26.46307718,2994
26.47394362,2973
26.48481006,3007
26.4956765,2962
26.50654294,2966
26.51740938,2952
26.52827582,2911
26.53914226,2946
26.5500087,3024
26.56087514,2884
26.57174158,2884
26.58260802,2975
26.59347446,3006
26.6043409,2975
26.61520734,2996
26.62607378,2954
26.63694022,2938
26.64780666,2925
26.6586731,2959
26.66953954,3004
26.68040598,2985
26.69127242,3060
26.70213886,2919
26.7130053,2959
26.72387174,2888
26.73473818,2946
26.74560462,2999
26.75647106,3012
26.7673375,3036
26.77820394,2998
26.78907038,2966
26.79993682,2948
26.81080326,2964
26.8216697,3054
26.83253614,3026
26.84340258,2914
26.85426902,3013
26.86513546,2961
26.8760019,3061
26.88686834,3023
26.89773478,3090
26.90860122,2967
26.91946766,2893
26.9303341,2975
26.94120054,2969
26.95206698,3002
26.96293342,3156
26.97379986,3042
26.9846663,3095
26.99553274,3184
27.00639918,3101
27.01726562,3120
27.02813206,3110
27.0389985,3209
27.04986494,3168
27.06073138,3213
27.07159782,3095
27.08246426,3223
27.0933307,3228
27.10419714,3199
27.11506358,3214
27.12593002,3151
27.13679646,3228
27.1476629,3191
27.15852934,3132
27.16939578,3125
27.18026222,3228
27.19112866,3098
27.2019951,3181
27.21286154,3178
27.22372798,3192
27.23459442,3256
27.24546086,3173
27.2563273,3235
27.26719374,3292
27.27806018,3255
27.28892662,3273
27.29979306,3325
27.3106595,3223
27.32152594,3207
27.33239238,3229
27.34325882,3287
27.35412526,3285
27.3649917,3305
27.37585814,3393
27.38672458,3293
27.39759102,3397
27.40845746,3296
27.4193239,3426
27.43019034,3446
27.44105678,3335
27.45192322,3425
27.46278966,3408
27.4736561,3341
27.48452254,3419
27.49538898,3452
27.50625542,3392
27.51712186,3465
27.5279883,3482
27.53885474,3490
27.54972118,3625
27.56058762,3496
27.57145406,3532
27.5823205,3593
27.59318694,3580
27.60405338,3570
27.61491982,3616
27.62578626,3500
27.6366527,3590
27.64751914,3724
27.65838558,3712
27.66925202,3635
27.68011846,3741
27.6909849,3730
27.70185134,3658
27.71271778,3697
27.72358422,3813
27.73445066,3793
27.7453171,3755
27.75618354,3902
27.76704998,3854
27.77791642,3856
27.78878286,3916
27.7996493,3856
27.81051574,3958
27.82138218,4060
27.83224862,4047
27.84311506,4108
27.8539815,3970
27.86484794,4146
27.87571438,4225
27.88658082,4203
27.89744726,4196
27.9083137,4185
27.91918014,4350
27.93004658,4301
27.94091302,4395
27.95177946,4387
27.9626459,4436
27.97351234,4395
27.98437878,4495
27.99524522,4523
28.00611166,4537
28.0169781,4622
28.02784454,4697
28.03871098,4719
28.04957742,4898
28.06044386,4774
28.0713103,4882
28.08217674,4855
28.09304318,5078
28.10390962,5081
28.11477606,5160
28.1256425,5345
28.13650894,5275
28.14737538,5245
28.15824182,5324
28.16910826,5523
28.1799747,5554
28.19084114,5677
28.20170758,5773
28.21257402,5851
28.22344046,5961
28.2343069,6224
28.24517334,6210
28.25603978,6232
28.26690622,6573
28.27777266,6599
28.2886391,6661
28.29950554,7044
28.31037198,7172
28.32123842,7378
28.33210486,7333
28.3429713,7592
28.35383774,7705
28.36470418,8081
28.37557062,8377
28.38643706,8475
28.3973035,8818
28.40816994,9143
28.41903638,9438
28.42990282,9624
28.44076926,10148
28.4516357,10593
28.46250214,10793
28.47336858,11330
28.48423502,11646
28.49510146,12082
28.5059679,12633
28.51683434,12905
28.52770078,13534
28.53856722,14009
28.54943366,14532
28.5603001,14885
28.57116654,15378
28.58203298,15702
28.59289942,15988
28.60376586,16360
28.6146323,16424
28.62549874,16404
28.63636518,16412
28.64723162,16475
28.65809806,16249
28.6689645,15917
28.67983094,15324
28.69069738,15412
28.70156382,14718
28.71243026,14206
28.7232967,13915
28.73416314,13468
28.74502958,12951
28.75589602,12581
28.76676246,12435
28.7776289,11746
28.78849534,11488
28.79936178,11309
28.81022822,11063
28.82109466,10434
28.8319611,10329
28.84282754,10127
28.85369398,9815
28.86456042,9447
28.87542686,9440
28.8862933,9067
28.89715974,9020
28.90802618,8687
28.91889262,8756
28.92975906,8407
28.9406255,8535
28.95149194,8359
28.96235838,8195
28.97322482,7992
28.98409126,8020
28.9949577,7853
29.00582414,7859
29.01669058,7652
29.02755702,7686
29.03842346,7552
29.0492899,7507
29.06015634,7508
29.07102278,7395
29.08188922,7288
29.09275566,7367
29.1036221,7364
29.11448854,7027
29.12535498,7043
29.13622142,6901
29.14708786,7097
29.1579543,6629
29.16882074,6827
29.17968718,6732
29.19055362,6754
29.20142006,6468
29.2122865,6578
29.22315294,6522
29.23401938,6508
29.24488582,6324
29.25575226,6475
29.2666187,6273
29.27748514,6273
29.28835158,6256
29.29921802,6289
29.31008446,6229
29.3209509,6192
29.33181734,5946
29.34268378,5844
29.35355022,5898
29.36441666,5993
29.3752831,5986
29.38614954,5840
29.39701598,5799
29.40788242,5770
29.41874886,5867
29.4296153,5610
29.44048174,5754
29.45134818,5624
29.46221462,5621
29.47308106,5575
29.4839475,5671
29.49481394,5704
29.50568038,5614
29.51654682,5444
29.52741326,5505
29.5382797,5425
29.54914614,5555
29.56001258,5497
29.57087902,5337
29.58174546,5321
29.5926119,5343
29.60347834,5366
29.61434478,5284
29.62521122,5296
29.63607766,5119
29.6469441,5106
29.65781054,5128
29.66867698,5175
29.67954342,5202
29.69040986,5212
29.7012763,5089
29.71214274,5137
29.72300918,5166
29.73387562,5040
29.74474206,5136
29.7556085,5237
29.76647494,5010
29.77734138,5064
29.78820782,5051
29.79907426,5127
29.8099407,5047
29.82080714,5008
29.83167358,4919
29.84254002,5096
29.85340646,5024
29.8642729,5110
29.87513934,5016
29.88600578,5013
29.89687222,4942
29.90773866,5045
29.9186051,5006
29.92947154,5053
29.94033798,4935
29.95120442,4971
29.96207086,5056
29.9729373,4891
29.98380374,4891
29.99467018,4853
