"Angle","Counts"
3.00243322,25955
3.01329966,25229
3.0241661,25245
3.03503254,24517
3.04589898,24733
3.05676542,24509
3.06763186,24384
3.0784983,23816
3.08936474,23582
3.10023118,23247
3.11109762,23277
3.12196406,23075
3.1328305,22893
3.14369694,22522
3.15456338,22184
3.16542982,22134
3.17629626,21867
3.1871627,21631
3.19802914,21630
3.20889558,21122
3.21976202,21395
3.23062846,21039
3.2414949,20777
3.25236134,20589
3.26322778,20474
3.27409422,20343
3.28496066,20306
3.2958271,19877
3.30669354,19676
3.31755998,19447
3.32842642,19591
3.33929286,19344
3.3501593,18963
3.36102574,18868
3.37189218,18568
3.38275862,18728
3.39362506,18228
3.4044915,18650
3.41535794,18077
3.42622438,18351
3.43709082,17738
3.44795726,17887
3.4588237,17706
3.46969014,17439
3.48055658,17241
3.49142302,17316
3.50228946,17177
3.5131559,17043
3.52402234,16853
3.53488878,17003
3.54575522,16589
3.55662166,16359
3.5674881,16334
3.57835454,16193
3.58922098,16267
3.60008742,15965
3.61095386,15973
3.6218203,15769
3.63268674,15814
3.64355318,15583
3.65441962,15580
3.66528606,15267
3.6761525,15163
3.68701894,15202
3.69788538,14974
3.70875182,14820
3.71961826,14989
3.7304847,14796
3.74135114,14445
3.75221758,14619
3.76308402,14332
3.77395046,14368
3.7848169,14076
3.79568334,13975
3.80654978,14034
3.81741622,13909
3.82828266,13708
3.8391491,13698
3.85001554,13680
3.86088198,13530
3.87174842,13254
3.88261486,13177
3.8934813,13227
3.90434774,13139
3.91521418,12990
3.92608062,12864
3.93694706,12656
3.9478135,12783
3.95867994,12680
3.96954638,12812
3.98041282,12560
3.99127926,12449
4.0021457,12355
4.01301214,12342
4.02387858,12399
4.03474502,12330
4.04561146,12280
4.0564779,11964
4.06734434,12029
4.07821078,11880
4.08907722,11769
4.09994366,11852
4.1108101,11776
4.12167654,11586
4.13254298,11378
4.14340942,11349
4.15427586,11233
4.1651423,11447
4.17600874,11369
4.18687518,11130
4.19774162,11055
4.20860806,11029
4.2194745,10899
4.23034094,10813
4.24120738,11008
4.25207382,10828
4.26294026,10797
4.2738067,10813
4.28467314,10604
4.29553958,10691
4.30640602,10425
4.31727246,10390
4.3281389,10435
4.33900534,10434
4.34987178,10530
4.36073822,10408
4.37160466,10241
4.3824711,10188
4.39333754,10069
4.40420398,10074
4.41507042,10118
4.42593686,10092
4.4368033,9850
4.44766974,9848
4.45853618,9845
4.46940262,9732
4.48026906,9709
4.4911355,9760
4.50200194,9568
4.51286838,9720
4.52373482,9577
4.53460126,9472
4.5454677,9488
4.55633414,9467
4.56720058,9308
4.57806702,9292
4.58893346,9446
4.5997999,9294
4.61066634,9314
4.62153278,9188
4.63239922,9225
4.64326566,9140
4.6541321,8982
4.66499854,9048
4.67586498,8985
4.68673142,8975
4.69759786,8925
4.7084643,8792
4.71933074,8942
4.73019718,8831
4.74106362,8803
4.75193006,9035
4.7627965,8817
4.77366294,8828
4.78452938,8646
4.79539582,8727
4.80626226,8675
4.8171287,8364
4.82799514,8661
4.83886158,8747
4.84972802,8509
4.86059446,8546
4.8714609,8636
4.88232734,8466
4.89319378,8552
4.90406022,8445
4.91492666,8252
4.9257931,8255
4.93665954,8296
4.94752598,8321
4.95839242,8162
4.96925886,8312
4.9801253,8184
4.99099174,8225
5.00185818,8193
5.01272462,8127
5.02359106,8198
5.0344575,8177
5.04532394,7960
5.05619038,7863
5.06705682,8116
5.07792326,7882
5.0887897,8147
5.09965614,7942
5.11052258,7972
5.12138902,7808
5.13225546,7946
5.1431219,7940
5.15398834,7928
5.16485478,7907
5.17572122,7780
5.18658766,7768
5.1974541,7864
5.20832054,7612
5.21918698,7803
5.23005342,7746
5.24091986,7788
5.2517863,7772
5.26265274,7780
5.27351918,7653
5.28438562,7591
5.29525206,7655
5.3061185,7819
5.31698494,7591
5.32785138,7823
5.33871782,7561
5.34958426,7728
5.3604507,7676
5.37131714,7583
5.38218358,7618
5.39305002,7622
5.40391646,7549
5.4147829,7663
5.42564934,7415
5.43651578,7428
5.44738222,7569
5.45824866,7260
5.4691151,7489
5.47998154,7401
5.49084798,7388
5.50171442,7442
5.51258086,7276
5.5234473,7584
5.53431374,7330
5.54518018,7348
5.55604662,7406
5.56691306,7350
5.5777795,7352
5.58864594,7438
5.59951238,7359
5.61037882,7369
5.62124526,7299
5.6321117,7264
5.64297814,7317
5.65384458,7185
5.66471102,7316
5.67557746,7186
5.6864439,7130
5.69731034,7308
5.70817678,7218
5.71904322,7327
5.72990966,7301
5.7407761,7131
5.75164254,7088
5.76250898,7178
5.77337542,7377
5.78424186,7205
5.7951083,7107
5.80597474,7203
5.81684118,7265
5.82770762,7238
5.83857406,7154
5.8494405,7194
5.86030694,7008
5.87117338,7033
5.88203982,7049
5.89290626,7158
5.9037727,7118
5.91463914,7278
5.92550558,7146
5.93637202,7079
5.94723846,7109
5.9581049,7089
5.96897134,7176
5.97983778,7100
5.99070422,7067
6.00157066,6961
6.0124371,7109
6.02330354,7025
6.03416998,7203
6.04503642,7086
6.05590286,7000
6.0667693,7167
6.07763574,7190
6.08850218,7302
6.09936862,7021
6.11023506,7130
6.1211015,6953
6.13196794,7216
6.14283438,7083
6.15370082,7172
6.16456726,7183
6.1754337,7032
6.18630014,6999
6.19716658,6962
6.20803302,7122
6.21889946,6975
6.2297659,7125
6.24063234,7168
6.25149878,6996
6.26236522,7155
6.27323166,7068
6.2840981,7085
6.29496454,7119
6.30583098,7131
6.31669742,6920
6.32756386,7039
6.3384303,7047
6.34929674,6991
6.36016318,7079
6.37102962,6853
6.38189606,6990
6.3927625,7148
6.40362894,7031
6.41449538,7019
6.42536182,7074
6.43622826,6890
6.4470947,6823
6.45796114,6965
6.46882758,7128
6.47969402,6993
6.49056046,7046
6.5014269,7095
6.51229334,7084
6.52315978,7014
6.53402622,7072
6.54489266,7141
6.5557591,7097
6.56662554,6914
6.57749198,6886
6.58835842,6999
6.59922486,6985
6.6100913,6890
6.62095774,6988
6.63182418,7037
6.64269062,6959
6.65355706,6967
6.6644235,6977
6.67528994,7232
6.68615638,7010
6.69702282,6936
6.70788926,7018
6.7187557,6905
6.72962214,6870
6.74048858,6886
6.75135502,6980
6.76222146,6901
6.7730879,6910
6.78395434,6992
6.79482078,6941
6.80568722,6933
6.81655366,6865
6.8274201,6900
6.83828654,6890
6.84915298,6709
6.86001942,6842
6.87088586,6727
6.8817523,6855
6.89261874,6814
6.90348518,6958
6.91435162,6868
6.92521806,6795
6.9360845,6745
6.94695094,6836
6.95781738,6820
6.96868382,6673
6.97955026,6848
6.9904167,6756
7.00128314,6643
7.01214958,6673
7.02301602,6851
7.03388246,6872
7.0447489,6823
7.05561534,6738
7.06648178,6739
7.07734822,6512
7.08821466,6737
7.0990811,6718
7.10994754,6892
7.12081398,6869
7.13168042,6587
7.14254686,6861
7.1534133,6690
7.16427974,6676
7.17514618,6622
7.18601262,6727
7.19687906,6801
7.2077455,6708
7.21861194,6637
7.22947838,6694
7.24034482,6581
7.25121126,6655
7.2620777,6560
7.27294414,6755
7.28381058,6694
7.29467702,6575
7.30554346,6582
7.3164099,6600
7.32727634,6631
7.33814278,6664
7.34900922,6580
7.35987566,6728
7.3707421,6513
7.38160854,6563
7.39247498,6649
7.40334142,6692
7.41420786,6791
7.4250743,6561
7.43594074,6758
7.44680718,6671
7.45767362,6575
7.46854006,6353
7.4794065,6561
7.49027294,6651
7.50113938,6492
7.51200582,6627
7.52287226,6543
7.5337387,6592
7.54460514,6597
7.55547158,6434
7.56633802,6630
7.57720446,6619
7.5880709,6683
7.59893734,6514
7.60980378,6515
7.62067022,6388
7.63153666,6501
7.6424031,6415
7.65326954,6454
7.66413598,6283
7.67500242,6434
7.68586886,6535
7.6967353,6334
7.70760174,6514
7.71846818,6396
7.72933462,6525
7.74020106,6497
7.7510675,6512
7.76193394,6487
7.77280038,6573
7.78366682,6361
7.79453326,6418
7.8053997,6336
7.81626614,6416
7.82713258,6417
7.83799902,6362
7.84886546,6363
7.8597319,6422
7.87059834,6215
7.88146478,6386
7.89233122,6379
7.90319766,6354
7.9140641,6341
7.92493054,6479
7.93579698,6348
7.94666342,6323
7.95752986,6438
7.9683963,6247
7.97926274,6464
7.99012918,6473
8.00099562,6332
8.01186206,6248
8.0227285,6408
8.03359494,6295
8.04446138,6387
8.05532782,6364
8.06619426,6278
8.0770607,6301
8.08792714,6145
8.09879358,6283
8.10966002,6267
8.12052646,6360
8.1313929,6185
8.14225934,6236
8.15312578,6369
8.16399222,6250
8.17485866,6258
8.1857251,6252
8.19659154,6234
8.20745798,6323
8.21832442,6127
8.22919086,6230
8.2400573,6176
8.25092374,6276
8.26179018,6249
8.27265662,6266
8.28352306,6147
8.2943895,6345
8.30525594,6283
8.31612238,6277
8.32698882,6143
8.33785526,6337
8.3487217,6126
8.35958814,6184
8.37045458,6183
8.38132102,6228
8.39218746,6090
8.4030539,6317
8.41392034,6138
8.42478678,6179
8.43565322,6196
8.44651966,6221
8.4573861,6378
8.46825254,6294
8.47911898,6437
8.48998542,6188
8.50085186,6182
8.5117183,6281
8.52258474,6054
8.53345118,6129
8.54431762,6145
8.55518406,6290
8.5660505,6180
8.57691694,6131
8.58778338,6046
8.59864982,6116
8.60951626,6157
8.6203827,6213
8.63124914,6111
8.64211558,6188
8.65298202,6026
8.66384846,6193
8.6747149,6165
8.68558134,6090
8.69644778,6037
8.70731422,6017
8.71818066,6017
8.7290471,6101
8.73991354,6142
8.75077998,6158
8.76164642,6116
8.77251286,6091
8.7833793,6185
8.79424574,6099
8.80511218,6092
8.81597862,6111
8.82684506,6103
8.8377115,6243
8.84857794,6061
8.85944438,6137
8.87031082,6045
8.88117726,6094
8.8920437,6053
8.90291014,5936
8.91377658,6215
8.92464302,6089
8.93550946,6139
8.9463759,6032
8.95724234,6054
8.96810878,6022
8.97897522,6047
8.98984166,6238
9.0007081,6041
9.01157454,6015
9.02244098,6076
9.03330742,6032
9.04417386,6057
9.0550403,6004
9.06590674,6004
9.07677318,6158
9.08763962,6122
9.09850606,6138
9.1093725,6059
9.12023894,6055
9.13110538,5996
9.14197182,6127
9.15283826,5973
9.1637047,6086
9.17457114,6022
9.18543758,6095
9.19630402,6085
9.20717046,6086
9.2180369,6076
9.22890334,6050
9.23976978,6027
9.25063622,6129
9.26150266,6088
9.2723691,6011
9.28323554,6211
9.29410198,6023
9.30496842,6047
9.31583486,6216
9.3267013,6080
9.33756774,6077
9.34843418,6112
9.35930062,5899
9.37016706,6092
9.3810335,6145
9.39189994,6086
9.40276638,6178
9.41363282,6169
9.42449926,6178
9.4353657,6147
9.44623214,6019
9.45709858,6023
9.46796502,6207
9.47883146,6129
9.4896979,6084
9.50056434,6295
9.51143078,6206
9.52229722,6263
9.53316366,6127
9.5440301,6163
9.55489654,6081
9.56576298,6238
9.57662942,6178
9.58749586,6281
9.5983623,6333
9.60922874,6360
9.62009518,6228
9.63096162,6350
9.64182806,6235
9.6526945,6245
9.66356094,6487
9.67442738,6340
9.68529382,6199
9.69616026,6319
9.7070267,6269
9.71789314,6478
9.72875958,6434
9.73962602,6384
9.75049246,6424
9.7613589,6480
9.77222534,6413
9.78309178,6535
9.79395822,6475
9.80482466,6400
9.8156911,6573
9.82655754,6382
9.83742398,6599
9.84829042,6569
9.85915686,6576
9.8700233,6451
9.88088974,6648
9.89175618,6557
9.90262262,6466
9.91348906,6573
9.9243555,6522
9.93522194,6571
9.94608838,6423
9.95695482,6605
9.96782126,6540
9.9786877,6500
9.98955414,6521
10.00042058,6377
10.01128702,6420
10.02215346,6278
10.0330199,6264
10.04388634,6376
10.05475278,6275
10.06561922,6272
10.07648566,6203
10.0873521,6310
10.09821854,6220
10.10908498,6329
10.11995142,6243
10.13081786,6238
10.1416843,6032
10.15255074,6069
10.16341718,6053
10.17428362,6031
10.18515006,5973
10.1960165,5975
10.20688294,6151
10.21774938,5990
10.22861582,6049
10.23948226,5933
10.2503487,5954
10.26121514,6039
10.27208158,6107
10.28294802,5936
10.29381446,5935
10.3046809,5875
10.31554734,5884
10.32641378,5952
10.33728022,5933
10.34814666,5859
10.3590131,5716
10.36987954,6028
10.38074598,5972
10.39161242,5873
10.40247886,5997
10.4133453,5884
10.42421174,5929
10.43507818,5953
10.44594462,5841
10.45681106,5919
10.4676775,5839
10.47854394,5937
10.48941038,5770
10.50027682,5786
10.51114326,5870
10.5220097,5757
10.53287614,5819
10.54374258,5881
10.55460902,5776
10.56547546,5893
10.5763419,5759
10.58720834,5774
10.59807478,5696
10.60894122,5892
10.61980766,5762
10.6306741,5725
10.64154054,5994
10.65240698,5915
10.66327342,5727
10.67413986,5861
10.6850063,5666
10.69587274,5878
10.70673918,5689
10.71760562,5674
10.72847206,5756
10.7393385,5642
10.75020494,5648
10.76107138,5574
10.77193782,5813
10.78280426,5573
10.7936707,5636
10.80453714,5565
10.81540358,5672
10.82627002,5678
10.83713646,5583
10.8480029,5608
10.85886934,5685
10.86973578,5552
10.88060222,5527
10.89146866,5618
10.9023351,5594
10.91320154,5608
10.92406798,5606
10.93493442,5687
10.94580086,5672
10.9566673,5652
10.96753374,5616
10.97840018,5671
10.98926662,5729
11.00013306,5661
11.0109995,5608
11.02186594,5600
11.03273238,5615
11.04359882,5650
11.05446526,5529
11.0653317,5428
11.07619814,5604
11.08706458,5517
11.09793102,5546
11.10879746,5525
11.1196639,5552
11.13053034,5622
11.14139678,5610
11.15226322,5506
11.16312966,5591
11.1739961,5548
11.18486254,5495
11.19572898,5430
11.20659542,5463
11.21746186,5688
11.2283283,5450
11.23919474,5547
11.25006118,5586
11.26092762,5557
11.27179406,5657
11.2826605,5513
11.29352694,5514
11.30439338,5528
11.31525982,5513
11.32612626,5523
11.3369927,5621
11.34785914,5341
11.35872558,5531
11.36959202,5475
11.38045846,5659
11.3913249,5701
11.40219134,5522
11.41305778,5514
11.42392422,5718
11.43479066,5547
11.4456571,5504
11.45652354,5577
11.46738998,5504
11.47825642,5543
11.48912286,5451
11.4999893,5584
11.51085574,5462
11.52172218,5416
11.53258862,5514
11.54345506,5411
11.5543215,5579
11.56518794,5638
11.57605438,5491
11.58692082,5557
11.59778726,5504
11.6086537,5446
11.61952014,5476
11.63038658,5648
11.64125302,5472
11.65211946,5438
11.6629859,5439
11.67385234,5550
11.68471878,5449
11.69558522,5690
11.70645166,5550
11.7173181,5366
11.72818454,5433
11.73905098,5279
11.74991742,5616
11.76078386,5512
11.7716503,5530
11.78251674,5658
11.79338318,5453
11.80424962,5563
11.81511606,5577
11.8259825,5732
11.83684894,5654
11.84771538,5563
11.85858182,5385
11.86944826,5422
11.8803147,5568
11.89118114,5515
11.90204758,5510
11.91291402,5622
11.92378046,5538
11.9346469,5503
11.94551334,5503
11.95637978,5573
11.96724622,5666
11.97811266,5406
11.9889791,5640
11.99984554,5716
12.01071198,5464
12.02157842,5755
12.03244486,5458
12.0433113,5628
12.05417774,5489
12.06504418,5580
12.07591062,5571
12.08677706,5570
12.0976435,5437
12.10850994,5621
12.11937638,5380
12.13024282,5466
12.14110926,5648
12.1519757,5388
12.16284214,5634
12.17370858,5417
12.18457502,5571
12.19544146,5497
12.2063079,5717
12.21717434,5614
12.22804078,5686
12.23890722,5720
12.24977366,5569
12.2606401,5676
12.27150654,5534
12.28237298,5634
12.29323942,5539
12.30410586,5496
12.3149723,5658
12.32583874,5539
12.33670518,5528
12.34757162,5761
12.35843806,5759
12.3693045,5671
12.38017094,5636
12.39103738,5603
12.40190382,5702
12.41277026,5599
12.4236367,5749
12.43450314,5660
12.44536958,5663
12.45623602,5811
12.46710246,5705
12.4779689,5705
12.48883534,5695
12.49970178,5723
12.51056822,5867
12.52143466,5701
12.5323011,5845
12.54316754,5509
12.55403398,5749
12.56490042,5752
12.57576686,5773
12.5866333,5807
12.59749974,5987
12.60836618,5792
12.61923262,5868
12.63009906,5657
12.6409655,5787
12.65183194,5811
12.66269838,5713
12.67356482,5853
12.68443126,5753
12.6952977,5979
12.70616414,5681
12.71703058,5892
12.72789702,5955
12.73876346,5853
12.7496299,5853
12.76049634,5828
12.77136278,5894
12.78222922,5935
12.79309566,5894
12.8039621,5814
12.81482854,5907
12.82569498,5959
12.83656142,5884
12.84742786,5994
12.8582943,5930
12.86916074,5985
12.88002718,5972
12.89089362,5848
12.90176006,5967
12.9126265,5833
12.92349294,6079
12.93435938,5948
12.94522582,5966
12.95609226,6196
12.9669587,6146
12.97782514,6064
12.98869158,6233
12.99955802,6168
13.01042446,6150
13.0212909,6154
13.03215734,6132
13.04302378,6274
13.05389022,6212
13.06475666,6229
13.0756231,6173
13.08648954,6135
13.09735598,6333
13.10822242,6388
13.11908886,6258
13.1299553,6411
13.14082174,6386
13.15168818,6425
13.16255462,6324
13.17342106,6501
13.1842875,6471
13.19515394,6547
13.20602038,6491
13.21688682,6712
13.22775326,6650
13.2386197,6544
13.24948614,6499
13.26035258,6702
13.27121902,6656
13.28208546,6713
13.2929519,6889
13.30381834,6698
13.31468478,6836
13.32555122,6843
13.33641766,6958
13.3472841,7056
13.35815054,7135
13.36901698,7175
13.37988342,6997
13.39074986,7207
13.4016163,7215
13.41248274,7341
13.42334918,7444
13.43421562,7479
13.44508206,7440
13.4559485,7537
13.46681494,7595
13.47768138,7765
13.48854782,7895
13.49941426,8001
13.5102807,7890
13.52114714,7952
13.53201358,8047
13.54288002,8153
13.55374646,8203
13.5646129,8533
13.57547934,8573
13.58634578,8803
13.59721222,8764
13.60807866,8966
13.6189451,9084
13.62981154,9202
13.64067798,9349
13.65154442,9448
13.66241086,9532
13.6732773,10018
13.68414374,10146
13.69501018,10177
13.70587662,10412
13.71674306,10799
13.7276095,10864
13.73847594,11039
13.74934238,11383
13.76020882,11382
13.77107526,11810
13.7819417,12233
13.79280814,12227
13.80367458,12427
13.81454102,12812
13.82540746,13297
13.8362739,13299
13.84714034,13775
13.85800678,14019
13.86887322,14166
13.87973966,14540
13.8906061,14548
13.90147254,15045
13.91233898,15578
13.92320542,15670
13.93407186,15989
13.9449383,16249
13.95580474,16013
13.96667118,16211
13.97753762,16784
13.98840406,16603
13.9992705,16791
14.01013694,16751
14.02100338,16713
14.03186982,16935
14.04273626,16360
14.0536027,16308
14.06446914,15884
14.07533558,15739
14.08620202,15008
14.09706846,14580
14.1079349,13830
14.11880134,13507
14.12966778,12911
14.14053422,12282
14.15140066,11792
14.1622671,11109
14.17313354,10703
14.18399998,10181
14.19486642,9738
14.20573286,9282
14.2165993,8856
14.22746574,8698
14.23833218,8361
14.24919862,7940
14.26006506,7800
14.2709315,7480
14.28179794,7328
14.29266438,7129
14.30353082,6964
14.31439726,6694
14.3252637,6551
14.33613014,6304
14.34699658,6365
14.35786302,6208
14.36872946,6078
14.3795959,5844
14.39046234,5654
14.40132878,5777
14.41219522,5593
14.42306166,5322
14.4339281,5411
14.44479454,5372
14.45566098,5186
14.46652742,5174
14.47739386,5030
14.4882603,4909
14.49912674,4946
14.50999318,4963
14.52085962,4906
14.53172606,4814
14.5425925,4628
14.55345894,4706
14.56432538,4557
14.57519182,4601
14.58605826,4518
14.5969247,4536
14.60779114,4451
14.61865758,4477
14.62952402,4289
14.64039046,4317
14.6512569,4384
14.66212334,4182
14.67298978,4271
14.68385622,3989
14.69472266,4157
14.7055891,4104
14.71645554,4197
14.72732198,4098
14.73818842,4155
14.74905486,3933
14.7599213,4051
14.77078774,4066
14.78165418,3964
14.79252062,3956
14.80338706,3922
14.8142535,3980
14.82511994,4022
14.83598638,3776
14.84685282,3791
14.85771926,3799
14.8685857,3864
14.87945214,3762
14.89031858,3786
14.90118502,3805
14.91205146,3690
14.9229179,3764
14.93378434,3756
14.94465078,3697
14.95551722,3632
14.96638366,3575
14.9772501,3657
14.98811654,3650
14.99898298,3694
15.00984942,3514
15.02071586,3546
15.0315823,3568
15.04244874,3493
15.05331518,3521
15.06418162,3471
15.07504806,3478
15.0859145,3516
15.09678094,3432
15.10764738,3436
15.11851382,3506
15.12938026,3554
15.1402467,3309
15.15111314,3405
15.16197958,3435
15.17284602,3265
15.18371246,3414
15.1945789,3391
15.20544534,3187
15.21631178,3234
15.22717822,3309
15.23804466,3319
15.2489111,3326
15.25977754,3316
15.27064398,3232
15.28151042,3260
15.29237686,3314
15.3032433,3329
15.31410974,3337
15.32497618,3150
15.33584262,3181
15.34670906,3211
15.3575755,3227
15.36844194,3230
15.37930838,3212
15.39017482,3188
15.40104126,3186
15.4119077,3266
15.42277414,3165
15.43364058,3110
15.44450702,3215
15.45537346,3173
15.4662399,3152
15.47710634,3143
15.48797278,3269
15.49883922,3100
15.50970566,3175
15.5205721,3061
15.53143854,3224
15.54230498,3136
15.55317142,3017
15.56403786,3037
15.5749043,3021
15.58577074,3078
15.59663718,2956
15.60750362,3076
15.61837006,3020
15.6292365,3067
15.64010294,2994
15.65096938,2971
15.66183582,3158
15.67270226,3022
15.6835687,3062
15.69443514,2990
15.70530158,3083
15.71616802,3031
15.72703446,2993
15.7379009,3078
15.74876734,3013
15.75963378,3073
15.77050022,2910
15.78136666,3010
15.7922331,3106
15.80309954,3005
15.81396598,3009
15.82483242,3000
15.83569886,3103
15.8465653,2862
15.85743174,3050
15.86829818,2893
15.87916462,2981
15.89003106,2840
15.9008975,2918
15.91176394,2881
15.92263038,3011
15.93349682,2808
15.94436326,2959
15.9552297,2974
15.96609614,2918
15.97696258,2894
15.98782902,2925
15.99869546,2842
16.0095619,2908
16.02042834,2837
16.03129478,2843
16.04216122,2817
16.05302766,2894
16.0638941,2801
16.07476054,2786
16.08562698,2817
16.09649342,2902
16.10735986,2843
16.1182263,2808
16.12909274,2914
16.13995918,2817
16.15082562,2882
16.16169206,2886
16.1725585,2827
16.18342494,2832
16.19429138,2784
16.20515782,2831
16.21602426,2755
16.2268907,2817
16.23775714,2723
16.24862358,2825
16.25949002,2826
16.27035646,2779
16.2812229,2763
16.29208934,2788
16.30295578,2791
16.31382222,2704
16.32468866,2724
16.3355551,2769
16.34642154,2826
16.35728798,2713
16.36815442,2702
16.37902086,2749
16.3898873,2733
16.40075374,2855
16.41162018,2736
16.42248662,2806
16.43335306,2760
16.4442195,2622
16.45508594,2769
16.46595238,2807
16.47681882,2708
16.48768526,2771
16.4985517,2695
16.50941814,2785
16.52028458,2639
16.53115102,2671
16.54201746,2716
16.5528839,2690
16.56375034,2602
16.57461678,2660
16.58548322,2615
16.59634966,2632
16.6072161,2655
16.61808254,2569
16.62894898,2673
16.63981542,2606
16.65068186,2641
16.6615483,2624
16.67241474,2459
16.68328118,2618
16.69414762,2667
16.70501406,2701
16.7158805,2556
16.72674694,2704
16.73761338,2591
16.74847982,2649
16.75934626,2631
16.7702127,2590
16.78107914,2634
16.79194558,2627
16.80281202,2630
16.81367846,2631
16.8245449,2586
16.83541134,2598
16.84627778,2589
16.85714422,2724
16.86801066,2696
16.8788771,2596
16.88974354,2764
16.90060998,2555
16.91147642,2624
16.92234286,2557
16.9332093,2542
16.94407574,2529
16.95494218,2521
16.96580862,2645
16.97667506,2529
16.9875415,2603
16.99840794,2644
17.00927438,2635
17.02014082,2652
17.03100726,2494
17.0418737,2587
17.05274014,2538
17.06360658,2698
17.07447302,2623
17.08533946,2497
17.0962059,2447
17.10707234,2584
17.11793878,2514
17.12880522,2548
17.13967166,2615
17.1505381,2475
17.16140454,2588
17.17227098,2501
17.18313742,2494
17.19400386,2533
17.2048703,2539
17.21573674,2513
17.22660318,2624
17.23746962,2478
17.24833606,2565
17.2592025,2548
17.27006894,2588
17.28093538,2494
17.29180182,2514
17.30266826,2519
17.3135347,2458
17.32440114,2468
17.33526758,2388
17.34613402,2552
17.35700046,2500
17.3678669,2499
17.37873334,2531
17.38959978,2563
17.40046622,2446
17.41133266,2594
17.4221991,2483
17.43306554,2539
17.44393198,2401
17.45479842,2606
17.46566486,2451
17.4765313,2438
17.48739774,2476
17.49826418,2447
17.50913062,2464
17.51999706,2429
17.5308635,2478
17.54172994,2524
17.55259638,2429
17.56346282,2546
17.57432926,2452
17.5851957,2397
17.59606214,2404
17.60692858,2447
17.61779502,2424
17.62866146,2529
17.6395279,2491
17.65039434,2387
17.66126078,2566
17.67212722,2408
17.68299366,2432
17.6938601,2481
17.70472654,2397
17.71559298,2447
17.72645942,2471
17.73732586,2449
17.7481923,2479
17.75905874,2452
17.76992518,2531
17.78079162,2426
17.79165806,2519
17.8025245,2412
17.81339094,2416
17.82425738,2438
17.83512382,2487
17.84599026,2373
17.8568567,2485
17.86772314,2409
17.87858958,2553
17.88945602,2414
17.90032246,2405
17.9111889,2391
17.92205534,2437
17.93292178,2463
17.94378822,2405
17.95465466,2491
17.9655211,2346
17.97638754,2369
17.98725398,2417
17.99812042,2489
18.00898686,2459
18.0198533,2356
18.03071974,2380
18.04158618,2425
18.05245262,2359
18.06331906,2315
18.0741855,2509
18.08505194,2366
18.09591838,2450
18.10678482,2321
18.11765126,2345
18.1285177,2461
18.13938414,2470
18.15025058,2431
18.16111702,2429
18.17198346,2418
18.1828499,2443
18.19371634,2458
18.20458278,2388
18.21544922,2410
18.22631566,2406
18.2371821,2395
18.24804854,2399
18.25891498,2343
18.26978142,2446
18.28064786,2457
18.2915143,2441
18.30238074,2305
18.31324718,2376
18.32411362,2374
18.33498006,2421
18.3458465,2423
18.35671294,2311
18.36757938,2307
18.37844582,2442
18.38931226,2282
18.4001787,2358
18.41104514,2409
18.42191158,2333
18.43277802,2400
18.44364446,2419
18.4545109,2368
18.46537734,2345
18.47624378,2274
18.48711022,2387
18.49797666,2275
18.5088431,2360
18.51970954,2399
18.53057598,2348
18.54144242,2344
18.55230886,2365
18.5631753,2427
18.57404174,2424
18.58490818,2439
18.59577462,2353
18.60664106,2476
18.6175075,2412
18.62837394,2419
18.63924038,2344
18.65010682,2350
18.66097326,2388
18.6718397,2344
18.68270614,2315
18.69357258,2312
18.70443902,2353
18.71530546,2342
18.7261719,2365
18.73703834,2275
18.74790478,2438
18.75877122,2292
18.76963766,2402
18.7805041,2396
18.79137054,2298
18.80223698,2332
18.81310342,2416
18.82396986,2432
18.8348363,2405
18.84570274,2319
18.85656918,2286
18.86743562,2353
18.87830206,2394
18.8891685,2392
18.90003494,2433
18.91090138,2368
18.92176782,2296
18.93263426,2288
18.9435007,2244
18.95436714,2354
18.96523358,2371
18.97610002,2302
18.98696646,2476
18.9978329,2290
19.00869934,2305
19.01956578,2337
19.03043222,2320
19.04129866,2283
19.0521651,2385
19.06303154,2335
19.07389798,2341
19.08476442,2323
19.09563086,2299
19.1064973,2296
19.11736374,2277
19.12823018,2371
19.13909662,2317
19.14996306,2325
19.1608295,2361
19.17169594,2390
19.18256238,2391
19.19342882,2343
19.20429526,2366
19.2151617,2350
19.22602814,2288
19.23689458,2358
19.24776102,2283
19.25862746,2358
19.2694939,2291
19.28036034,2384
19.29122678,2303
19.30209322,2326
19.31295966,2320
19.3238261,2330
19.33469254,2348
19.34555898,2322
19.35642542,2311
19.36729186,2334
19.3781583,2334
19.38902474,2297
19.39989118,2316
19.41075762,2296
19.42162406,2379
19.4324905,2371
19.44335694,2284
19.45422338,2305
19.46508982,2306
19.47595626,2349
19.4868227,2286
19.49768914,2333
19.50855558,2379
19.51942202,2422
19.53028846,2332
19.5411549,2310
19.55202134,2237
19.56288778,2421
19.57375422,2293
19.58462066,2351
19.5954871,2290
19.60635354,2386
19.61721998,2309
19.62808642,2409
19.63895286,2278
19.6498193,2447
19.66068574,2224
19.67155218,2407
19.68241862,2353
19.69328506,2227
19.7041515,2385
19.71501794,2341
19.72588438,2283
19.73675082,2305
19.74761726,2341
19.7584837,2280
19.76935014,2318
19.78021658,2412
19.79108302,2322
19.80194946,2373
19.8128159,2393
19.82368234,2389
19.83454878,2330
19.84541522,2322
19.85628166,2324
19.8671481,2377
19.87801454,2401
19.88888098,2424
19.89974742,2364
19.91061386,2370
19.9214803,2393
19.93234674,2396
19.94321318,2481
19.95407962,2332
19.96494606,2392
19.9758125,2381
19.98667894,2425
19.99754538,2383
20.00841182,2425
20.01927826,2406
20.0301447,2416
20.04101114,2354
20.05187758,2340
20.06274402,2294
20.07361046,2481
20.0844769,2502
20.09534334,2437
20.10620978,2446
20.11707622,2420
20.12794266,2431
20.1388091,2465
20.14967554,2435
20.16054198,2491
20.17140842,2443
20.18227486,2538
20.1931413,2484
20.20400774,2422
20.21487418,2468
20.22574062,2555
20.23660706,2463
20.2474735,2486
20.25833994,2417
20.26920638,2522
20.28007282,2611
20.29093926,2436
20.3018057,2486
20.31267214,2592
20.32353858,2558
20.33440502,2582
20.34527146,2504
20.3561379,2550
20.36700434,2559
20.37787078,2407
20.38873722,2475
20.39960366,2363
20.4104701,2507
20.42133654,2424
20.43220298,2491
20.44306942,2463
20.45393586,2363
20.4648023,2292
20.47566874,2345
20.48653518,2410
20.49740162,2458
20.50826806,2459
20.5191345,2406
20.53000094,2420
20.54086738,2478
20.55173382,2452
20.56260026,2264
20.5734667,2412
20.58433314,2411
20.59519958,2545
20.60606602,2417
20.61693246,2435
20.6277989,2370
20.63866534,2367
20.64953178,2493
20.66039822,2362
20.67126466,2415
20.6821311,2371
20.69299754,2334
20.70386398,2398
20.71473042,2314
20.72559686,2417
20.7364633,2349
20.74732974,2409
20.75819618,2282
20.76906262,2407
20.77992906,2324
20.7907955,2388
20.80166194,2292
20.81252838,2331
20.82339482,2336
20.83426126,2391
20.8451277,2362
20.85599414,2293
20.86686058,2336
20.87772702,2346
20.88859346,2333
20.8994599,2419
20.91032634,2344
20.92119278,2369
20.93205922,2376
20.94292566,2270
20.9537921,2389
20.96465854,2314
20.97552498,2449
20.98639142,2326
20.99725786,2415
21.0081243,2366
21.01899074,2455
21.02985718,2401
21.04072362,2291
21.05159006,2382
21.0624565,2325
21.07332294,2263
21.08418938,2218
21.09505582,2317
21.10592226,2379
21.1167887,2312
21.12765514,2286
21.13852158,2267
21.14938802,2256
21.16025446,2305
21.1711209,2314
21.18198734,2392
21.19285378,2312
21.20372022,2232
21.21458666,2295
21.2254531,2341
21.23631954,2261
21.24718598,2307
21.25805242,2366
21.26891886,2301
21.2797853,2282
21.29065174,2342
21.30151818,2332
21.31238462,2278
21.32325106,2337
21.3341175,2162
21.34498394,2385
21.35585038,2229
21.36671682,2265
21.37758326,2336
21.3884497,2369
21.39931614,2301
21.41018258,2451
21.42104902,2176
21.43191546,2288
21.4427819,2368
21.45364834,2263
21.46451478,2258
21.47538122,2291
21.48624766,2339
21.4971141,2302
21.50798054,2374
21.51884698,2231
21.52971342,2328
21.54057986,2306
21.5514463,2297
21.56231274,2286
21.57317918,2338
21.58404562,2370
21.59491206,2275
21.6057785,2282
21.61664494,2278
21.62751138,2325
21.63837782,2302
21.64924426,2163
21.6601107,2321
21.67097714,2196
21.68184358,2305
21.69271002,2367
21.70357646,2296
21.7144429,2299
21.72530934,2261
21.73617578,2337
21.74704222,2317
21.75790866,2326
21.7687751,2342
21.77964154,2224
21.79050798,2296
21.80137442,2330
21.81224086,2325
21.8231073,2273
21.83397374,2399
21.84484018,2264
21.85570662,2288
21.86657306,2350
21.8774395,2202
21.88830594,2245
21.89917238,2255
21.91003882,2316
21.92090526,2263
21.9317717,2285
21.94263814,2247
21.95350458,2361
21.96437102,2296
21.97523746,2283
21.9861039,2313
21.99697034,2324
22.00783678,2323
22.01870322,2341
22.02956966,2298
22.0404361,2362
22.05130254,2421
22.06216898,2335
22.07303542,2329
22.08390186,2342
22.0947683,2339
22.10563474,2386
22.11650118,2292
22.12736762,2348
22.13823406,2368
22.1491005,2355
22.15996694,2376
22.17083338,2328
22.18169982,2404
22.19256626,2335
22.2034327,2379
22.21429914,2488
22.22516558,2347
22.23603202,2416
22.24689846,2426
22.2577649,2332
22.26863134,2244
22.27949778,2558
22.29036422,2352
22.30123066,2458
22.3120971,2487
22.32296354,2497
22.33382998,2497
22.34469642,2596
22.35556286,2488
22.3664293,2546
22.37729574,2666
22.38816218,2606
22.39902862,2615
22.40989506,2598
22.4207615,2620
22.43162794,2682
22.44249438,2674
22.45336082,2709
22.46422726,2647
22.4750937,2711
22.48596014,2752
22.49682658,2745
22.50769302,2814
22.51855946,2891
22.5294259,2785
22.54029234,2841
22.55115878,2813
22.56202522,2836
22.57289166,2877
22.5837581,2899
22.59462454,2902
22.60549098,2975
22.61635742,2971
22.62722386,3019
22.6380903,2978
22.64895674,3041
22.65982318,3110
22.67068962,3127
22.68155606,3171
22.6924225,3237
22.70328894,3233
22.71415538,3333
22.72502182,3186
22.73588826,3267
22.7467547,3348
22.75762114,3387
22.76848758,3270
22.77935402,3311
22.79022046,3420
22.8010869,3394
22.81195334,3344
22.82281978,3379
22.83368622,3403
22.84455266,3413
22.8554191,3358
22.86628554,3246
22.87715198,3384
22.88801842,3374
22.89888486,3239
22.9097513,3337
22.92061774,3334
22.93148418,3244
22.94235062,3280
22.95321706,3288
22.9640835,3301
22.97494994,3176
22.98581638,3255
22.99668282,3214
23.00754926,3309
23.0184157,3160
23.02928214,3166
23.04014858,3128
23.05101502,3211
23.06188146,3077
23.0727479,3298
23.08361434,3180
23.09448078,3178
23.10534722,3103
23.11621366,3134
23.1270801,3166
23.13794654,3213
23.14881298,3050
23.15967942,3099
23.17054586,3105
23.1814123,3028
23.19227874,3042
23.20314518,3144
23.21401162,3161
23.22487806,3138
23.2357445,3050
23.24661094,3040
23.25747738,3179
23.26834382,3023
23.27921026,2965
23.2900767,3017
23.30094314,3081
23.31180958,3204
23.32267602,3082
23.33354246,3092
23.3444089,3124
23.35527534,3157
23.36614178,3068
23.37700822,3011
23.38787466,3004
23.3987411,3075
23.40960754,3099
23.42047398,3071
23.43134042,3173
23.44220686,2888
23.4530733,3129
23.46393974,3046
23.47480618,3014
23.48567262,2917
23.49653906,3046
23.5074055,3042
23.51827194,2971
23.52913838,3067
23.54000482,2975
23.55087126,3124
23.5617377,2963
23.57260414,2899
23.58347058,2965
23.59433702,3091
23.60520346,2941
23.6160699,3096
23.62693634,3086
23.63780278,2869
23.64866922,2929
23.65953566,2855
23.6704021,2899
23.68126854,2979
23.69213498,2987
23.70300142,2974
23.71386786,2778
23.7247343,2949
23.73560074,2887
23.74646718,2980
23.75733362,3038
23.76820006,3053
23.7790665,2958
23.78993294,3005
23.80079938,3019
23.81166582,2959
23.82253226,3009
23.8333987,3028
23.84426514,2944
23.85513158,2942
23.86599802,3026
23.87686446,3058
23.8877309,3065
23.89859734,2987
23.90946378,3100
23.92033022,3107
23.93119666,3129
23.9420631,3080
23.95292954,3135
23.96379598,3088
23.97466242,3052
23.98552886,3080
23.9963953,2985
24.00726174,3002
24.01812818,3013
24.02899462,2879
24.03986106,3024
24.0507275,3073
24.06159394,3036
24.07246038,2928
24.08332682,2936
24.09419326,2914
24.1050597,2996
24.11592614,2894
24.12679258,3014
24.13765902,2879
24.14852546,3010
24.1593919,3007
24.17025834,2906
24.18112478,2927
24.19199122,2974
24.20285766,3011
24.2137241,2865
24.22459054,2905
24.23545698,3057
24.24632342,2930
24.25718986,2840
24.2680563,2971
24.27892274,2840
24.28978918,3002
24.30065562,2921
24.31152206,2946
24.3223885,2833
24.33325494,2964
24.34412138,2942
24.35498782,2889
24.36585426,3004
24.3767207,2834
24.38758714,2922
24.39845358,2908
24.40932002,2996
24.42018646,2802
24.4310529,2840
24.44191934,2979
24.45278578,2942
24.46365222,3008
24.47451866,2862
24.4853851,2944
24.49625154,2877
24.50711798,2878
24.51798442,2839
24.52885086,2946
24.5397173,2812
24.55058374,2867
24.56145018,2958
24.57231662,2859
24.58318306,2949
24.5940495,2922
24.60491594,2928
24.61578238,2845
24.62664882,2906
24.63751526,2894
24.6483817,2831
24.65924814,2955
24.67011458,2891
24.68098102,2906
24.69184746,2842
24.7027139,2861
24.71358034,2969
24.72444678,2940
24.73531322,2876
24.74617966,2925
24.7570461,2896
24.76791254,2831
24.77877898,2835
24.78964542,2923
24.80051186,2899
24.8113783,2801
24.82224474,2960
24.83311118,2888
24.84397762,2867
24.85484406,2918
24.8657105,2902
24.87657694,2814
24.88744338,2874
24.89830982,2850
24.90917626,2868
24.9200427,2936
24.93090914,2858
24.94177558,2828
24.95264202,2826
24.96350846,2982
24.9743749,2794
24.98524134,2920
24.99610778,2891
25.00697422,2752
25.01784066,2834
25.0287071,2844
25.03957354,2782
25.05043998,2847
25.06130642,2825
25.07217286,2895
25.0830393,2980
25.09390574,2817
25.10477218,2819
25.11563862,2880
25.12650506,2784
25.1373715,2721
25.14823794,2862
25.15910438,2749
25.16997082,2799
25.18083726,2800
25.1917037,2835
25.20257014,2851
25.21343658,2827
25.22430302,2831
25.23516946,2800
25.2460359,2817
25.25690234,2724
25.26776878,2904
25.27863522,2785
25.28950166,2858
25.3003681,2891
25.31123454,2848
25.32210098,2831
25.33296742,2821
25.34383386,2878
25.3547003,2835
25.36556674,2795
25.37643318,2870
25.38729962,2828
25.39816606,2852
25.4090325,2772
25.41989894,2837
25.43076538,2883
25.44163182,2840
25.45249826,2755
25.4633647,2731
25.47423114,2762
25.48509758,2800
25.49596402,2820
25.50683046,2804
25.5176969,2892
25.52856334,2770
25.53942978,2885
25.55029622,2789
25.56116266,2772
25.5720291,2846
25.58289554,2819
25.59376198,2857
25.60462842,2849
25.61549486,2921
25.6263613,2891
25.63722774,2805
25.64809418,2841
25.65896062,2817
25.66982706,2787
25.6806935,2779
25.69155994,2868
25.70242638,2920
25.71329282,2885
25.72415926,2845
25.7350257,2832
25.74589214,2863
25.75675858,2911
25.76762502,2752
25.77849146,2759
25.7893579,2864
25.80022434,2779
25.81109078,2994
25.82195722,2866
25.83282366,2924
25.8436901,2860
25.85455654,2890
25.86542298,2987
25.87628942,2832
25.88715586,2973
25.8980223,2819
25.90888874,2896
25.91975518,2940
25.93062162,2855
25.94148806,2742
25.9523545,2837
25.96322094,2779
25.97408738,2779
25.98495382,2822
25.99582026,2881
26.0066867,2921
26.01755314,2911
26.02841958,2759
26.03928602,2816
26.05015246,2937
26.0610189,2923
26.07188534,2835
26.08275178,2900
26.09361822,2781
26.10448466,2834
26.1153511,2873
26.12621754,2748
26.13708398,2926
26.14795042,2907
26.15881686,2767
26.1696833,2853
26.18054974,2706
26.19141618,2785
26.20228262,2820
26.21314906,2867
26.2240155,2965
26.23488194,2928
26.24574838,2871
26.25661482,2805
26.26748126,2944
26.2783477,2895
26.28921414,2948
26.30008058,2907
26.31094702,2762
26.32181346,2926
26.3326799,2827
26.34354634,2813
26.35441278,2874
26.36527922,2994
26.37614566,2851
26.3870121,2755
26.39787854,2868
26.40874498,2864
26.41961142,2958
26.43047786,2825
26.4413443,2968
26.45221074,2923
26.46307718,2891
26.47394362,2896
26.48481006,2976
26.4956765,2919
26.50654294,2899
26.51740938,2922
26.52827582,2976
26.53914226,2810
26.5500087,2972
26.56087514,2904
26.57174158,2889
26.58260802,2961
26.59347446,2915
26.6043409,2803
26.61520734,2980
26.62607378,2880
26.63694022,2857
26.64780666,2859
26.6586731,3024
26.66953954,2895
26.68040598,3016
26.69127242,2877
26.70213886,2943
26.7130053,2821
26.72387174,2998
26.73473818,2961
26.74560462,2890
26.75647106,2953
26.7673375,2813
26.77820394,2864
26.78907038,2962
26.79993682,2898
26.81080326,2981
26.8216697,2936
26.83253614,2867
26.84340258,3007
26.85426902,2867
26.86513546,2875
26.8760019,2950
26.88686834,2861
26.89773478,3086
26.90860122,2926
26.91946766,2930
26.9303341,2927
26.94120054,2876
26.95206698,3021
26.96293342,2951
26.97379986,2996
26.9846663,3064
26.99553274,2936
27.00639918,3006
27.01726562,3041
27.02813206,2983
27.0389985,2987
27.04986494,3021
27.06073138,3047
27.07159782,2999
27.08246426,2968
27.0933307,3077
27.10419714,3148
27.11506358,3038
27.12593002,3094
27.13679646,2949
27.1476629,3173
27.15852934,3071
27.16939578,3083
27.18026222,3073
27.19112866,2977
27.2019951,3090
27.21286154,3052
27.22372798,3089
27.23459442,3114
27.24546086,3023
27.2563273,3133
27.26719374,3037
27.27806018,3029
27.28892662,3047
27.29979306,3046
27.3106595,3093
27.32152594,3121
27.33239238,3086
27.34325882,3121
27.35412526,3114
27.3649917,3096
27.37585814,3142
27.38672458,3121
27.39759102,3200
27.40845746,3120
27.4193239,3187
27.43019034,3242
27.44105678,3193
27.45192322,3168
27.46278966,3223
27.4736561,3135
27.48452254,3284
27.49538898,3254
27.50625542,3307
27.51712186,3265
27.5279883,3200
27.53885474,3336
27.54972118,3359
27.56058762,3171
27.57145406,3225
27.5823205,3318
27.59318694,3288
27.60405338,3321
27.61491982,3279
27.62578626,3410
27.6366527,3360
27.64751914,3380
27.65838558,3421
27.66925202,3389
27.68011846,3480
27.6909849,3353
27.70185134,3478
27.71271778,3420
27.72358422,3367
27.73445066,3318
27.7453171,3509
27.75618354,3398
27.76704998,3379
27.77791642,3545
27.78878286,3477
27.7996493,3580
27.81051574,3618
27.82138218,3579
27.83224862,3642
27.84311506,3631
27.8539815,3635
27.86484794,3609
27.87571438,3668
27.88658082,3825
27.89744726,3727
27.9083137,3773
27.91918014,3767
27.93004658,3747
27.94091302,3851
27.95177946,3806
27.9626459,4025
27.97351234,3918
27.98437878,3931
27.99524522,3990
28.00611166,4051
28.0169781,3945
28.02784454,4030
28.03871098,4046
28.04957742,4116
28.06044386,4293
28.0713103,4265
28.08217674,4315
28.09304318,4352
28.10390962,4241
28.11477606,4367
28.1256425,4422
28.13650894,4473
28.14737538,4456
28.15824182,4529
28.16910826,4748
28.1799747,4677
28.19084114,4624
28.20170758,4635
28.21257402,4794
28.22344046,4837
28.2343069,4814
28.24517334,4987
28.25603978,5037
28.26690622,5083
28.27777266,5261
28.2886391,5299
28.29950554,5373
28.31037198,5444
28.32123842,5620
28.33210486,5712
28.3429713,5826
28.35383774,5988
28.36470418,6090
28.37557062,6143
28.38643706,6482
28.3973035,6398
28.40816994,6783
28.41903638,6859
28.42990282,6957
28.44076926,7533
28.4516357,7527
28.46250214,7712
28.47336858,8254
28.48423502,8369
28.49510146,8556
28.5059679,8940
28.51683434,9038
28.52770078,9321
28.53856722,10058
28.54943366,10257
28.5603001,10683
28.57116654,10859
28.58203298,11264
28.59289942,11544
28.60376586,12045
28.6146323,12297
28.62549874,12532
28.63636518,12576
28.64723162,13210
28.65809806,13248
28.6689645,13280
28.67983094,13202
28.69069738,13149
28.70156382,13096
28.71243026,12671
28.7232967,12731
28.73416314,12070
28.74502958,11618
28.75589602,11387
28.76676246,11069
28.7776289,10732
28.78849534,10353
28.79936178,9966
28.81022822,9634
28.82109466,9335
28.8319611,8849
28.84282754,8596
28.85369398,8544
28.86456042,8434
28.87542686,8062
28.8862933,7680
28.89715974,7707
28.90802618,7582
28.91889262,7134
28.92975906,7139
28.9406255,7177
28.95149194,6978
28.96235838,6803
28.97322482,6788
28.98409126,6558
28.9949577,6471
29.00582414,6383
29.01669058,6263
29.02755702,6188
29.03842346,6049
29.0492899,5978
29.06015634,6091
29.07102278,5849
29.08188922,5896
29.09275566,5957
29.1036221,5786
29.11448854,5819
29.12535498,5760
29.13622142,5719
29.14708786,5623
29.1579543,5689
29.16882074,5522
29.17968718,5495
29.19055362,5466
29.20142006,5353
29.2122865,5298
29.22315294,5155
29.23401938,5346
29.24488582,5079
29.25575226,5241
29.2666187,5064
29.27748514,5073
29.28835158,5107
29.29921802,4958
29.31008446,4784
29.3209509,4864
29.33181734,4894
29.34268378,4835
29.35355022,4833
29.36441666,4691
29.3752831,4778
29.38614954,4758
29.39701598,4694
29.40788242,4693
29.41874886,4665
29.4296153,4664
29.44048174,4551
29.45134818,4642
29.46221462,4607
29.47308106,4512
29.4839475,4540
29.49481394,4568
29.50568038,4405
29.51654682,4513
29.52741326,4467
29.5382797,4539
29.54914614,4354
29.56001258,4417
29.57087902,4367
29.58174546,4384
29.5926119,4452
29.60347834,4322
29.61434478,4425
29.62521122,4322
29.63607766,4307
29.6469441,4250
29.65781054,4239
29.66867698,4254
29.67954342,4323
29.69040986,4277
29.7012763,4194
29.71214274,4173
29.72300918,3983
29.73387562,4119
29.74474206,4175
29.7556085,4147
29.76647494,4118
29.77734138,4134
29.78820782,4252
29.79907426,4139
29.8099407,4133
29.82080714,4200
29.83167358,4124
29.84254002,4071
29.85340646,4071
29.8642729,4062
29.87513934,4094
29.88600578,4047
29.89687222,4078
29.90773866,3961
29.9186051,4111
29.92947154,3942
29.94033798,3964
29.95120442,4010
29.96207086,4041
29.9729373,3955
29.98380374,4000
29.99467018,4081
