"Angle","Counts"
3.00243322,25220
3.01329966,25016
3.0241661,24820
3.03503254,24582
3.04589898,24501
3.05676542,24137
3.06763186,23909
3.0784983,23754
3.08936474,23500
3.10023118,23110
3.11109762,22672
3.12196406,22696
3.1328305,22565
3.14369694,22238
3.15456338,22059
3.16542982,21792
3.17629626,21802
3.1871627,21311
3.19802914,21028
3.20889558,20980
3.21976202,20693
3.23062846,20882
3.2414949,20498
3.25236134,20247
3.26322778,19996
3.27409422,19679
3.28496066,19728
3.2958271,19642
3.30669354,19418
3.31755998,19265
3.32842642,18834
3.33929286,18714
3.3501593,18700
3.36102574,18245
3.37189218,18292
3.38275862,17870
3.39362506,18010
3.4044915,17630
3.41535794,17782
3.42622438,17456
3.43709082,17398
3.44795726,17145
3.4588237,16906
3.46969014,16993
3.48055658,16694
3.49142302,16721
3.50228946,16486
3.5131559,16272
3.52402234,16377
3.53488878,16317
3.54575522,15813
3.55662166,15888
3.5674881,15916
3.57835454,15496
3.58922098,15622
3.60008742,15455
3.61095386,15056
3.6218203,15147
3.63268674,15010
3.64355318,14933
3.65441962,14689
3.66528606,14498
3.6761525,14597
3.68701894,14170
3.69788538,14544
3.70875182,14149
3.71961826,14126
3.7304847,13857
3.74135114,13726
3.75221758,13862
3.76308402,13497
3.77395046,13613
3.7848169,13594
3.79568334,13411
3.80654978,13127
3.81741622,13033
3.82828266,13025
3.8391491,13033
3.85001554,12869
3.86088198,12756
3.87174842,12638
3.88261486,12673
3.8934813,12649
3.90434774,12481
3.91521418,12210
3.92608062,12133
3.93694706,12020
3.9478135,12137
3.95867994,11800
3.96954638,11765
3.98041282,11740
3.99127926,11836
4.0021457,11674
4.01301214,11550
4.02387858,11619
4.03474502,11575
4.04561146,11280
4.0564779,11404
4.06734434,11233
4.07821078,11311
4.08907722,11132
4.09994366,10960
4.1108101,10861
4.12167654,11082
4.13254298,10835
4.14340942,10731
4.15427586,10717
4.1651423,10576
4.17600874,10641
4.18687518,10384
4.19774162,10403
4.20860806,10404
4.2194745,10316
4.23034094,10357
4.24120738,10258
4.25207382,10237
4.26294026,10023
4.2738067,9952
4.28467314,10253
4.29553958,10088
4.30640602,9887
4.31727246,9818
4.3281389,9767
4.33900534,9662
4.34987178,9583
4.36073822,9635
4.37160466,9601
4.3824711,9488
4.39333754,9535
4.40420398,9426
4.41507042,9279
4.42593686,9278
4.4368033,9404
4.44766974,9126
4.45853618,9298
4.46940262,9111
4.48026906,9288
4.4911355,9027
4.50200194,9174
4.51286838,8924
4.52373482,8863
4.53460126,8896
4.5454677,8779
4.55633414,8756
4.56720058,8786
4.57806702,8602
4.58893346,8618
4.5997999,8613
4.61066634,8633
4.62153278,8623
4.63239922,8508
4.64326566,8455
4.6541321,8595
4.66499854,8571
4.67586498,8464
4.68673142,8512
4.69759786,8493
4.7084643,8357
4.71933074,8349
4.73019718,8145
4.74106362,8230
4.75193006,8160
4.7627965,8225
4.77366294,8139
4.78452938,8274
4.79539582,8074
4.80626226,8220
4.8171287,8180
4.82799514,8250
4.83886158,7867
4.84972802,8064
4.86059446,8073
4.8714609,8030
4.88232734,8018
4.89319378,8097
4.90406022,8107
4.91492666,7792
4.9257931,7905
4.93665954,7862
4.94752598,7867
4.95839242,7776
4.96925886,7822
4.9801253,7807
4.99099174,7668
5.00185818,7763
5.01272462,7842
5.02359106,7817
5.0344575,7773
5.04532394,7877
5.05619038,7805
5.06705682,7683
5.07792326,7819
5.0887897,7802
5.09965614,7545
5.11052258,7645
5.12138902,7587
5.13225546,7748
5.1431219,7694
5.15398834,7674
5.16485478,7574
5.17572122,7684
5.18658766,7728
5.1974541,7492
5.20832054,7652
5.21918698,7549
5.23005342,7571
5.24091986,7525
5.2517863,7510
5.26265274,7436
5.27351918,7440
5.28438562,7549
5.29525206,7557
5.3061185,7613
5.31698494,7658
5.32785138,7337
5.33871782,7488
5.34958426,7475
5.3604507,7511
5.37131714,7508
5.38218358,7485
5.39305002,7502
5.40391646,7305
5.4147829,7544
5.42564934,7484
5.43651578,7560
5.44738222,7606
5.45824866,7394
5.4691151,7401
5.47998154,7501
5.49084798,7530
5.50171442,7475
5.51258086,7412
5.5234473,7454
5.53431374,7492
5.54518018,7406
5.55604662,7351
5.56691306,7469
5.5777795,7516
5.58864594,7452
5.59951238,7437
5.61037882,7431
5.62124526,7312
5.6321117,7521
5.64297814,7379
5.65384458,7439
5.66471102,7384
5.67557746,7466
5.6864439,7467
5.69731034,7502
5.70817678,7534
5.71904322,7374
5.72990966,7466
5.7407761,7375
5.75164254,7443
5.76250898,7360
5.77337542,7596
5.78424186,7434
5.7951083,7670
5.80597474,7409
5.81684118,7613
5.82770762,7316
5.83857406,7549
5.8494405,7667
5.86030694,7499
5.87117338,7558
5.88203982,7445
5.89290626,7474
5.9037727,7386
5.91463914,7672
5.92550558,7498
5.93637202,7596
5.94723846,7567
5.9581049,7591
5.96897134,7616
5.97983778,7570
5.99070422,7755
6.00157066,7669
6.0124371,7717
6.02330354,7622
6.03416998,7613
6.04503642,7518
6.05590286,7637
6.0667693,7587
6.07763574,7719
6.08850218,7536
6.09936862,7566
6.11023506,7618
6.1211015,7612
6.13196794,7574
6.14283438,7736
6.15370082,7793
6.16456726,7629
6.1754337,7655
6.18630014,7676
6.19716658,7688
6.20803302,7524
6.21889946,7615
6.2297659,7693
6.24063234,7733
6.25149878,7814
6.26236522,7642
6.27323166,7550
6.2840981,7842
6.29496454,7745
6.30583098,7771
6.31669742,7800
6.32756386,7577
6.3384303,7788
6.34929674,7707
6.36016318,7793
6.37102962,7702
6.38189606,7632
6.3927625,7673
6.40362894,7743
6.41449538,7751
6.42536182,7742
6.43622826,7747
6.4470947,7841
6.45796114,7901
6.46882758,7651
6.47969402,7699
6.49056046,7596
6.5014269,7650
6.51229334,7611
6.52315978,7791
6.53402622,7607
6.54489266,7805
6.5557591,7841
6.56662554,7685
6.57749198,7791
6.58835842,7748
6.59922486,7828
6.6100913,7737
6.62095774,7788
6.63182418,7657
6.64269062,7447
6.65355706,7817
6.6644235,7632
6.67528994,7602
6.68615638,7711
6.69702282,7691
6.70788926,7623
6.7187557,7775
6.72962214,7797
6.74048858,7679
6.75135502,7624
6.76222146,7754
6.7730879,7639
6.78395434,7794
6.79482078,7693
6.80568722,7709
6.81655366,7478
6.8274201,7723
6.83828654,7574
6.84915298,7514
6.86001942,7817
6.87088586,7556
6.8817523,7638
6.89261874,7540
6.90348518,7750
6.91435162,7544
6.92521806,7568
6.9360845,7429
6.94695094,7572
6.95781738,7619
6.96868382,7533
6.97955026,7606
6.9904167,7412
7.00128314,7445
7.01214958,7567
7.02301602,7608
7.03388246,7470
7.0447489,7333
7.05561534,7329
7.06648178,7364
7.07734822,7523
7.08821466,7458
7.0990811,7557
7.10994754,7411
7.12081398,7324
7.13168042,7394
7.14254686,7401
7.1534133,7426
7.16427974,7284
7.17514618,7435
7.18601262,7389
7.19687906,7159
7.2077455,7240
7.21861194,7147
7.22947838,7162
7.24034482,7268
7.25121126,7292
7.2620777,7148
7.27294414,7213
7.28381058,7135
7.29467702,7134
7.30554346,7219
7.3164099,7213
7.32727634,7156
7.33814278,7232
7.34900922,7077
7.35987566,7129
7.3707421,7120
7.38160854,7051
7.39247498,7096
7.40334142,7014
7.41420786,7029
7.4250743,6719
7.43594074,7081
7.44680718,7065
7.45767362,7028
7.46854006,6939
7.4794065,7080
7.49027294,7007
7.50113938,6972
7.51200582,6887
7.52287226,7011
7.5337387,6943
7.54460514,6941
7.55547158,6794
7.56633802,6865
7.57720446,6689
7.5880709,6961
7.59893734,6940
7.60980378,6855
7.62067022,6848
7.63153666,6828
7.6424031,6911
7.65326954,6548
7.66413598,6803
7.67500242,6887
7.68586886,6858
7.6967353,6890
7.70760174,6930
7.71846818,6777
7.72933462,6744
7.74020106,6743
7.7510675,6695
7.76193394,6592
7.77280038,6857
7.78366682,6816
7.79453326,6670
7.8053997,6577
7.81626614,6629
7.82713258,6621
7.83799902,6720
7.84886546,6536
7.8597319,6675
7.87059834,6614
7.88146478,6748
7.89233122,6607
7.90319766,6475
7.9140641,6559
7.92493054,6507
7.93579698,6432
7.94666342,6492
7.95752986,6576
7.9683963,6609
7.97926274,6446
7.99012918,6589
8.00099562,6532
8.01186206,6547
8.0227285,6364
8.03359494,6381
8.04446138,6214
8.05532782,6422
8.06619426,6363
8.0770607,6259
8.08792714,6478
8.09879358,6389
8.10966002,6331
8.12052646,6279
8.1313929,6294
8.14225934,6553
8.15312578,6335
8.16399222,6258
8.17485866,6363
8.1857251,6400
8.19659154,6406
8.20745798,6295
8.21832442,6249
8.22919086,6262
8.2400573,6196
8.25092374,6314
8.26179018,6205
8.27265662,6314
8.28352306,6343
8.2943895,6259
8.30525594,6190
8.31612238,6310
8.32698882,6329
8.33785526,6192
8.3487217,6239
8.35958814,6042
8.37045458,6121
8.38132102,6215
8.39218746,6055
8.4030539,6052
8.41392034,6225
8.42478678,6129
8.43565322,6052
8.44651966,6174
8.4573861,6049
8.46825254,6051
8.47911898,5995
8.48998542,5987
8.50085186,6056
8.5117183,6062
8.52258474,6116
8.53345118,6117
8.54431762,6038
8.55518406,6159
8.5660505,6106
8.57691694,5965
8.58778338,6054
8.59864982,6055
8.60951626,6085
8.6203827,6005
8.63124914,6094
8.64211558,6040
8.65298202,6008
8.66384846,5983
8.6747149,5946
8.68558134,5907
8.69644778,5937
8.70731422,6089
8.71818066,5939
8.7290471,5951
8.73991354,5900
8.75077998,5855
8.76164642,5919
8.77251286,6096
8.7833793,5822
8.79424574,5917
8.80511218,5977
8.81597862,5847
8.82684506,5943
8.8377115,5980
8.84857794,5848
8.85944438,5917
8.87031082,5799
8.88117726,5987
8.8920437,5971
8.90291014,5973
8.91377658,5790
8.92464302,5908
8.93550946,5936
8.9463759,5918
8.95724234,5974
8.96810878,5734
8.97897522,5923
8.98984166,5885
9.0007081,5785
9.01157454,5776
9.02244098,5901
9.03330742,5757
9.04417386,5788
9.0550403,5876
9.06590674,5871
9.07677318,5859
9.08763962,5733
9.09850606,5921
9.1093725,5879
9.12023894,5843
9.13110538,5979
9.14197182,5725
9.15283826,6017
9.1637047,5898
9.17457114,5881
9.18543758,5791
9.19630402,5665
9.20717046,5692
9.2180369,5825
9.22890334,5892
9.23976978,5932
9.25063622,5747
9.26150266,5895
9.2723691,5828
9.28323554,5899
9.29410198,5779
9.30496842,5871
9.31583486,5842
9.3267013,5787
9.33756774,5826
9.34843418,5865
9.35930062,5849
9.37016706,5915
9.3810335,5917
9.39189994,5839
9.40276638,5949
9.41363282,5815
9.42449926,5942
9.4353657,5770
9.44623214,5911
9.45709858,5953
9.46796502,5745
9.47883146,5879
9.4896979,5902
9.50056434,5997
9.51143078,5758
9.52229722,5979
9.53316366,5958
9.5440301,5965
9.55489654,5961
9.56576298,5918
9.57662942,6055
9.58749586,6193
9.5983623,6094
9.60922874,6158
9.62009518,5976
9.63096162,6057
9.64182806,6141
9.6526945,6085
9.66356094,6272
9.67442738,6119
9.68529382,6266
9.69616026,6318
9.7070267,6181
9.71789314,6415
9.72875958,6062
9.73962602,6374
9.75049246,6092
9.7613589,6245
9.77222534,6335
9.78309178,6216
9.79395822,6209
9.80482466,6375
9.8156911,6556
9.82655754,6450
9.83742398,6458
9.84829042,6344
9.85915686,6459
9.8700233,6398
9.88088974,6444
9.89175618,6507
9.90262262,6475
9.91348906,6465
9.9243555,6388
9.93522194,6254
9.94608838,6320
9.95695482,6314
9.96782126,6211
9.9786877,6236
9.98955414,6178
10.00042058,6122
10.01128702,5953
10.02215346,6001
10.0330199,5878
10.04388634,5817
10.05475278,5935
10.06561922,5979
10.07648566,5785
10.0873521,5714
10.09821854,5751
10.10908498,5640
10.11995142,5749
10.13081786,5696
10.1416843,5763
10.15255074,5533
10.16341718,5516
10.17428362,5588
10.18515006,5491
10.1960165,5594
10.20688294,5501
10.21774938,5592
10.22861582,5526
10.23948226,5657
10.2503487,5521
10.26121514,5439
10.27208158,5528
10.28294802,5403
10.29381446,5352
10.3046809,5439
10.31554734,5444
10.32641378,5576
10.33728022,5382
10.34814666,5523
10.3590131,5446
10.36987954,5342
10.38074598,5429
10.39161242,5345
10.40247886,5385
10.4133453,5261
10.42421174,5413
10.43507818,5376
10.44594462,5346
10.45681106,5269
10.4676775,5396
10.47854394,5269
10.48941038,5248
10.50027682,5312
10.51114326,5428
10.5220097,5202
10.53287614,5290
10.54374258,5321
10.55460902,5284
10.56547546,5309
10.5763419,5171
10.58720834,5271
10.59807478,5224
10.60894122,5282
10.61980766,5215
10.6306741,5397
10.64154054,5359
10.65240698,5198
10.66327342,5294
10.67413986,5289
10.6850063,5223
10.69587274,5261
10.70673918,5245
10.71760562,5268
10.72847206,5111
10.7393385,5314
10.75020494,5297
10.76107138,5107
10.77193782,5074
10.78280426,5150
10.7936707,5165
10.80453714,5150
10.81540358,5127
10.82627002,5099
10.83713646,5322
10.8480029,5085
10.85886934,5267
10.86973578,5085
10.88060222,5188
10.89146866,5312
10.9023351,5354
10.91320154,5136
10.92406798,5145
10.93493442,5217
10.94580086,5227
10.9566673,5163
10.96753374,5161
10.97840018,5120
10.98926662,5066
11.00013306,5129
11.0109995,5264
11.02186594,5152
11.03273238,5164
11.04359882,5017
11.05446526,5187
11.0653317,5083
11.07619814,5141
11.08706458,5114
11.09793102,5158
11.10879746,5217
11.1196639,5139
11.13053034,5157
11.14139678,5122
11.15226322,5077
11.16312966,5053
11.1739961,4948
11.18486254,5091
11.19572898,4951
11.20659542,5019
11.21746186,5180
11.2283283,5141
11.23919474,5048
11.25006118,5141
11.26092762,5076
11.27179406,5063
11.2826605,5219
11.29352694,5001
11.30439338,5173
11.31525982,5179
11.32612626,5111
11.3369927,5125
11.34785914,5095
11.35872558,5133
11.36959202,5169
11.38045846,5123
11.3913249,5125
11.40219134,5136
11.41305778,5013
11.42392422,5009
11.43479066,5139
11.4456571,5069
11.45652354,5152
11.46738998,5128
11.47825642,5209
11.48912286,5149
11.4999893,5061
11.51085574,5119
11.52172218,5019
11.53258862,5110
11.54345506,5232
11.5543215,5175
11.56518794,5014
11.57605438,5067
11.58692082,5059
11.59778726,5096
11.6086537,5175
11.61952014,5097
11.63038658,5184
11.64125302,5279
11.65211946,5202
11.6629859,5131
11.67385234,5076
11.68471878,5108
11.69558522,5162
11.70645166,5111
11.7173181,5153
11.72818454,5231
11.73905098,5261
11.74991742,5310
11.76078386,5183
11.7716503,5148
11.78251674,5137
11.79338318,5177
11.80424962,5120
11.81511606,5098
11.8259825,5136
11.83684894,5126
11.84771538,5270
11.85858182,5112
11.86944826,5091
11.8803147,5091
11.89118114,5287
11.90204758,5151
11.91291402,5272
11.92378046,5343
11.9346469,5214
11.94551334,5310
11.95637978,5152
11.96724622,5224
11.97811266,5285
11.9889791,5244
11.99984554,5366
12.01071198,5260
12.02157842,5315
12.03244486,5385
12.0433113,5279
12.05417774,5321
12.06504418,5259
12.07591062,5228
12.08677706,5337
12.0976435,5307
12.10850994,5278
12.11937638,5176
12.13024282,5298
12.14110926,5462
12.1519757,5352
12.16284214,5242
12.17370858,5511
12.18457502,5440
12.19544146,5556
12.2063079,5492
12.21717434,5298
12.22804078,5426
12.23890722,5374
12.24977366,5361
12.2606401,5534
12.27150654,5514
12.28237298,5285
12.29323942,5508
12.30410586,5535
12.3149723,5441
12.32583874,5497
12.33670518,5531
12.34757162,5496
12.35843806,5551
12.3693045,5548
12.38017094,5607
12.39103738,5567
12.40190382,5486
12.41277026,5638
12.4236367,5594
12.43450314,5594
12.44536958,5531
12.45623602,5628
12.46710246,5774
12.4779689,5617
12.48883534,5808
12.49970178,5714
12.51056822,5748
12.52143466,5660
12.5323011,5701
12.54316754,5698
12.55403398,5651
12.56490042,5820
12.57576686,5796
12.5866333,5846
12.59749974,5792
12.60836618,5776
12.61923262,5791
12.63009906,5779
12.6409655,5951
12.65183194,5856
12.66269838,5966
12.67356482,5977
12.68443126,5930
12.6952977,5934
12.70616414,5899
12.71703058,5848
12.72789702,5988
12.73876346,6082
12.7496299,5988
12.76049634,6118
12.77136278,5984
12.78222922,6023
12.79309566,6024
12.8039621,6085
12.81482854,6202
12.82569498,6116
12.83656142,6119
12.84742786,6212
12.8582943,6225
12.86916074,6311
12.88002718,6142
12.89089362,6157
12.90176006,6246
12.9126265,6395
12.92349294,6231
12.93435938,6394
12.94522582,6350
12.95609226,6422
12.9669587,6393
12.97782514,6414
12.98869158,6423
12.99955802,6508
13.01042446,6595
13.0212909,6536
13.03215734,6695
13.04302378,6663
13.05389022,6623
13.06475666,6759
13.0756231,6725
13.08648954,6755
13.09735598,6864
13.10822242,6833
13.11908886,6764
13.1299553,7067
13.14082174,6997
13.15168818,7018
13.16255462,7011
13.17342106,7061
13.1842875,7274
13.19515394,7185
13.20602038,7494
13.21688682,7406
13.22775326,7548
13.2386197,7420
13.24948614,7576
13.26035258,7623
13.27121902,7649
13.28208546,7703
13.2929519,7798
13.30381834,7923
13.31468478,7966
13.32555122,7961
13.33641766,8175
13.3472841,8440
13.35815054,8418
13.36901698,8399
13.37988342,8698
13.39074986,8593
13.4016163,8746
13.41248274,8838
13.42334918,9157
13.43421562,9142
13.44508206,9310
13.4559485,9465
13.46681494,9651
13.47768138,9708
13.48854782,9968
13.49941426,9965
13.5102807,10355
13.52114714,10458
13.53201358,10649
13.54288002,10910
13.55374646,11032
13.5646129,11083
13.57547934,11406
13.58634578,11846
13.59721222,11894
13.60807866,12359
13.6189451,12594
13.62981154,13079
13.64067798,13452
13.65154442,13618
13.66241086,13802
13.6732773,14116
13.68414374,14391
13.69501018,14883
13.70587662,15452
13.71674306,15658
13.7276095,16153
13.73847594,16548
13.74934238,17298
13.76020882,17642
13.77107526,18233
13.7819417,18329
13.79280814,19084
13.80367458,19686
13.81454102,20100
13.82540746,20259
13.8362739,21019
13.84714034,22011
13.85800678,22301
13.86887322,22677
13.87973966,23276
13.8906061,23667
13.90147254,24347
13.91233898,24723
13.92320542,25066
13.93407186,25452
13.9449383,25672
13.95580474,25802
13.96667118,26239
13.97753762,26018
13.98840406,25784
13.9992705,25552
14.01013694,25285
14.02100338,24496
14.03186982,24198
14.04273626,23747
14.0536027,22280
14.06446914,21226
14.07533558,19994
14.08620202,18843
14.09706846,17749
14.1079349,16855
14.11880134,15758
14.12966778,15059
14.14053422,14163
14.15140066,13479
14.1622671,12779
14.17313354,12396
14.18399998,11717
14.19486642,11078
14.20573286,10551
14.2165993,10094
14.22746574,9648
14.23833218,9502
14.24919862,9067
14.26006506,8852
14.2709315,8463
14.28179794,8228
14.29266438,8113
14.30353082,7846
14.31439726,7534
14.3252637,7251
14.33613014,7247
14.34699658,7180
14.35786302,6980
14.36872946,6710
14.3795959,6603
14.39046234,6511
14.40132878,6309
14.41219522,6342
14.42306166,6215
14.4339281,6040
14.44479454,5824
14.45566098,5694
14.46652742,5772
14.47739386,5597
14.4882603,5578
14.49912674,5252
14.50999318,5323
14.52085962,5295
14.53172606,5383
14.5425925,5119
14.55345894,5100
14.56432538,5039
14.57519182,4994
14.58605826,4915
14.5969247,4842
14.60779114,4818
14.61865758,4753
14.62952402,4757
14.64039046,4715
14.6512569,4572
14.66212334,4736
14.67298978,4668
14.68385622,4553
14.69472266,4505
14.7055891,4560
14.71645554,4381
14.72732198,4548
14.73818842,4241
14.74905486,4416
14.7599213,4268
14.77078774,4248
14.78165418,4304
14.79252062,4149
14.80338706,4196
14.8142535,4078
14.82511994,4181
14.83598638,4092
14.84685282,4025
14.85771926,4072
14.8685857,3932
14.87945214,3965
14.89031858,4000
14.90118502,3909
14.91205146,4006
14.9229179,3835
14.93378434,4012
14.94465078,3858
14.95551722,3827
14.96638366,3895
14.9772501,3891
14.98811654,3945
14.99898298,3871
15.00984942,3792
15.02071586,3843
15.0315823,3606
15.04244874,3676
15.05331518,3657
15.06418162,3657
15.07504806,3695
15.0859145,3706
15.09678094,3634
15.10764738,3638
15.11851382,3593
15.12938026,3490
15.1402467,3569
15.15111314,3576
15.16197958,3513
15.17284602,3461
15.18371246,3613
15.1945789,3528
15.20544534,3588
15.21631178,3477
15.22717822,3535
15.23804466,3547
15.2489111,3525
15.25977754,3453
15.27064398,3519
15.28151042,3553
15.29237686,3447
15.3032433,3337
15.31410974,3411
15.32497618,3385
15.33584262,3506
15.34670906,3401
15.3575755,3430
15.36844194,3274
15.37930838,3444
15.39017482,3277
15.40104126,3358
15.4119077,3284
15.42277414,3221
15.43364058,3159
15.44450702,3267
15.45537346,3290
15.4662399,3239
15.47710634,3362
15.48797278,3245
15.49883922,3278
15.50970566,3230
15.5205721,3223
15.53143854,3308
15.54230498,3199
15.55317142,3050
15.56403786,3230
15.5749043,3336
15.58577074,3228
15.59663718,3089
15.60750362,3170
15.61837006,3134
15.6292365,3234
15.64010294,3236
15.65096938,3120
15.66183582,3283
15.67270226,3193
15.6835687,3119
15.69443514,3103
15.70530158,3056
15.71616802,3070
15.72703446,3098
15.7379009,3093
15.74876734,3132
15.75963378,3058
15.77050022,3175
15.78136666,3098
15.7922331,3036
15.80309954,3134
15.81396598,3035
15.82483242,3048
15.83569886,3098
15.8465653,2956
15.85743174,3063
15.86829818,3019
15.87916462,3002
15.89003106,3058
15.9008975,3004
15.91176394,3045
15.92263038,2970
15.93349682,3009
15.94436326,3035
15.9552297,3016
15.96609614,2995
15.97696258,3047
15.98782902,3011
15.99869546,3051
16.0095619,2976
16.02042834,2919
16.03129478,2915
16.04216122,3031
16.05302766,2989
16.0638941,2902
16.07476054,3030
16.08562698,2962
16.09649342,2993
16.10735986,2986
16.1182263,2900
16.12909274,2853
16.13995918,2949
16.15082562,2859
16.16169206,2924
16.1725585,2827
16.18342494,3096
16.19429138,2855
16.20515782,2949
16.21602426,2844
16.2268907,2929
16.23775714,2900
16.24862358,2890
16.25949002,2751
16.27035646,2898
16.2812229,2859
16.29208934,2802
16.30295578,2933
16.31382222,2913
16.32468866,2875
16.3355551,2904
16.34642154,2777
16.35728798,2843
16.36815442,2909
16.37902086,2853
16.3898873,2909
16.40075374,2831
16.41162018,2933
16.42248662,2798
16.43335306,2846
16.4442195,2832
16.45508594,2792
16.46595238,2762
16.47681882,2730
16.48768526,2812
16.4985517,2722
16.50941814,2828
16.52028458,2786
16.53115102,2875
16.54201746,2795
16.5528839,2925
16.56375034,2788
16.57461678,2837
16.58548322,2740
16.59634966,2757
16.6072161,2771
16.61808254,2824
16.62894898,2783
16.63981542,2717
16.65068186,2837
16.6615483,2753
16.67241474,2764
16.68328118,2736
16.69414762,2734
16.70501406,2728
16.7158805,2756
16.72674694,2738
16.73761338,2773
16.74847982,2705
16.75934626,2785
16.7702127,2844
16.78107914,2765
16.79194558,2800
16.80281202,2790
16.81367846,2675
16.8245449,2718
16.83541134,2759
16.84627778,2813
16.85714422,2676
16.86801066,2661
16.8788771,2692
16.88974354,2735
16.90060998,2700
16.91147642,2604
16.92234286,2763
16.9332093,2724
16.94407574,2665
16.95494218,2747
16.96580862,2742
16.97667506,2718
16.9875415,2714
16.99840794,2734
17.00927438,2728
17.02014082,2660
17.03100726,2681
17.0418737,2692
17.05274014,2735
17.06360658,2692
17.07447302,2798
17.08533946,2597
17.0962059,2603
17.10707234,2616
17.11793878,2608
17.12880522,2594
17.13967166,2757
17.1505381,2643
17.16140454,2701
17.17227098,2659
17.18313742,2732
17.19400386,2612
17.2048703,2695
17.21573674,2589
17.22660318,2777
17.23746962,2748
17.24833606,2671
17.2592025,2670
17.27006894,2718
17.28093538,2617
17.29180182,2711
17.30266826,2697
17.3135347,2679
17.32440114,2615
17.33526758,2669
17.34613402,2743
17.35700046,2659
17.3678669,2594
17.37873334,2600
17.38959978,2614
17.40046622,2649
17.41133266,2619
17.4221991,2640
17.43306554,2636
17.44393198,2692
17.45479842,2691
17.46566486,2649
17.4765313,2659
17.48739774,2743
17.49826418,2670
17.50913062,2601
17.51999706,2648
17.5308635,2604
17.54172994,2625
17.55259638,2501
17.56346282,2688
17.57432926,2581
17.5851957,2571
17.59606214,2627
17.60692858,2659
17.61779502,2597
17.62866146,2642
17.6395279,2577
17.65039434,2678
17.66126078,2576
17.67212722,2583
17.68299366,2567
17.6938601,2560
17.70472654,2629
17.71559298,2481
17.72645942,2592
17.73732586,2522
17.7481923,2588
17.75905874,2548
17.76992518,2581
17.78079162,2534
17.79165806,2636
17.8025245,2563
17.81339094,2529
17.82425738,2537
17.83512382,2503
17.84599026,2572
17.8568567,2561
17.86772314,2518
17.87858958,2590
17.88945602,2609
17.90032246,2481
17.9111889,2571
17.92205534,2421
17.93292178,2576
17.94378822,2544
17.95465466,2441
17.9655211,2546
17.97638754,2629
17.98725398,2444
17.99812042,2464
18.00898686,2514
18.0198533,2521
18.03071974,2564
18.04158618,2394
18.05245262,2546
18.06331906,2468
18.0741855,2528
18.08505194,2463
18.09591838,2480
18.10678482,2458
18.11765126,2422
18.1285177,2455
18.13938414,2434
18.15025058,2662
18.16111702,2509
18.17198346,2584
18.1828499,2542
18.19371634,2544
18.20458278,2539
18.21544922,2540
18.22631566,2511
18.2371821,2524
18.24804854,2518
18.25891498,2566
18.26978142,2455
18.28064786,2441
18.2915143,2545
18.30238074,2500
18.31324718,2482
18.32411362,2513
18.33498006,2476
18.3458465,2516
18.35671294,2629
18.36757938,2501
18.37844582,2544
18.38931226,2470
18.4001787,2451
18.41104514,2519
18.42191158,2674
18.43277802,2515
18.44364446,2525
18.4545109,2537
18.46537734,2580
18.47624378,2420
18.48711022,2540
18.49797666,2526
18.5088431,2553
18.51970954,2570
18.53057598,2444
18.54144242,2507
18.55230886,2469
18.5631753,2488
18.57404174,2554
18.58490818,2547
18.59577462,2511
18.60664106,2620
18.6175075,2439
18.62837394,2451
18.63924038,2458
18.65010682,2395
18.66097326,2546
18.6718397,2417
18.68270614,2543
18.69357258,2591
18.70443902,2490
18.71530546,2521
18.7261719,2420
18.73703834,2517
18.74790478,2489
18.75877122,2464
18.76963766,2566
18.7805041,2466
18.79137054,2473
18.80223698,2363
18.81310342,2418
18.82396986,2483
18.8348363,2558
18.84570274,2451
18.85656918,2566
18.86743562,2510
18.87830206,2530
18.8891685,2536
18.90003494,2441
18.91090138,2537
18.92176782,2482
18.93263426,2460
18.9435007,2510
18.95436714,2514
18.96523358,2427
18.97610002,2476
18.98696646,2544
18.9978329,2464
19.00869934,2595
19.01956578,2411
19.03043222,2434
19.04129866,2512
19.0521651,2496
19.06303154,2511
19.07389798,2506
19.08476442,2465
19.09563086,2469
19.1064973,2470
19.11736374,2436
19.12823018,2447
19.13909662,2423
19.14996306,2538
19.1608295,2419
19.17169594,2521
19.18256238,2518
19.19342882,2473
19.20429526,2574
19.2151617,2458
19.22602814,2499
19.23689458,2522
19.24776102,2517
19.25862746,2428
19.2694939,2515
19.28036034,2481
19.29122678,2505
19.30209322,2468
19.31295966,2439
19.3238261,2426
19.33469254,2460
19.34555898,2473
19.35642542,2497
19.36729186,2432
19.3781583,2598
19.38902474,2455
19.39989118,2559
19.41075762,2446
19.42162406,2410
19.4324905,2551
19.44335694,2406
19.45422338,2468
19.46508982,2590
19.47595626,2399
19.4868227,2445
19.49768914,2409
19.50855558,2486
19.51942202,2445
19.53028846,2510
19.5411549,2480
19.55202134,2555
19.56288778,2504
19.57375422,2521
19.58462066,2536
19.5954871,2485
19.60635354,2511
19.61721998,2463
19.62808642,2479
19.63895286,2537
19.6498193,2535
19.66068574,2495
19.67155218,2456
19.68241862,2500
19.69328506,2498
19.7041515,2440
19.71501794,2440
19.72588438,2497
19.73675082,2472
19.74761726,2426
19.7584837,2481
19.76935014,2491
19.78021658,2579
19.79108302,2588
19.80194946,2562
19.8128159,2599
19.82368234,2486
19.83454878,2570
19.84541522,2616
19.85628166,2482
19.8671481,2519
19.87801454,2504
19.88888098,2578
19.89974742,2529
19.91061386,2552
19.9214803,2599
19.93234674,2623
19.94321318,2549
19.95407962,2612
19.96494606,2668
19.9758125,2580
19.98667894,2594
19.99754538,2606
20.00841182,2532
20.01927826,2641
20.0301447,2687
20.04101114,2605
20.05187758,2705
20.06274402,2795
20.07361046,2650
20.0844769,2699
20.09534334,2645
20.10620978,2729
20.11707622,2668
20.12794266,2686
20.1388091,2672
20.14967554,2791
20.16054198,2691
20.17140842,2821
20.18227486,2762
20.1931413,2771
20.20400774,2841
20.21487418,2880
20.22574062,2828
20.23660706,2857
20.2474735,2861
20.25833994,2963
20.26920638,2848
20.28007282,2870
20.29093926,2805
20.3018057,2846
20.31267214,2798
20.32353858,2816
20.33440502,2855
20.34527146,2891
20.3561379,2753
20.36700434,2748
20.37787078,2768
20.38873722,2743
20.39960366,2694
20.4104701,2715
20.42133654,2729
20.43220298,2697
20.44306942,2664
20.45393586,2601
20.4648023,2639
20.47566874,2706
20.48653518,2692
20.49740162,2607
20.50826806,2646
20.5191345,2600
20.53000094,2561
20.54086738,2660
20.55173382,2605
20.56260026,2680
20.5734667,2510
20.58433314,2659
20.59519958,2588
20.60606602,2587
20.61693246,2557
20.6277989,2652
20.63866534,2604
20.64953178,2577
20.66039822,2580
20.67126466,2533
20.6821311,2532
20.69299754,2573
20.70386398,2605
20.71473042,2668
20.72559686,2597
20.7364633,2606
20.74732974,2672
20.75819618,2574
20.76906262,2690
20.77992906,2596
20.7907955,2721
20.80166194,2673
20.81252838,2674
20.82339482,2645
20.83426126,2618
20.8451277,2723
20.85599414,2730
20.86686058,2694
20.87772702,2863
20.88859346,2716
20.8994599,2707
20.91032634,2721
20.92119278,2722
20.93205922,2774
20.94292566,2693
20.9537921,2802
20.96465854,2707
20.97552498,2670
20.98639142,2500
20.99725786,2609
21.0081243,2572
21.01899074,2613
21.02985718,2513
21.04072362,2530
21.05159006,2571
21.0624565,2503
21.07332294,2487
21.08418938,2479
21.09505582,2418
21.10592226,2467
21.1167887,2501
21.12765514,2541
21.13852158,2646
21.14938802,2479
21.16025446,2553
21.1711209,2436
21.18198734,2461
21.19285378,2476
21.20372022,2460
21.21458666,2480
21.2254531,2473
21.23631954,2541
21.24718598,2461
21.25805242,2514
21.26891886,2530
21.2797853,2388
21.29065174,2402
21.30151818,2401
21.31238462,2445
21.32325106,2459
21.3341175,2460
21.34498394,2514
21.35585038,2405
21.36671682,2481
21.37758326,2443
21.3884497,2460
21.39931614,2428
21.41018258,2445
21.42104902,2519
21.43191546,2297
21.4427819,2383
21.45364834,2352
21.46451478,2326
21.47538122,2466
21.48624766,2446
21.4971141,2509
21.50798054,2413
21.51884698,2487
21.52971342,2445
21.54057986,2395
21.5514463,2338
21.56231274,2475
21.57317918,2287
21.58404562,2421
21.59491206,2522
21.6057785,2352
21.61664494,2442
21.62751138,2466
21.63837782,2496
21.64924426,2449
21.6601107,2429
21.67097714,2358
21.68184358,2438
21.69271002,2333
21.70357646,2500
21.7144429,2397
21.72530934,2414
21.73617578,2444
21.74704222,2435
21.75790866,2469
21.7687751,2409
21.77964154,2473
21.79050798,2320
21.80137442,2478
21.81224086,2378
21.8231073,2447
21.83397374,2430
21.84484018,2382
21.85570662,2426
21.86657306,2415
21.8774395,2488
21.88830594,2472
21.89917238,2479
21.91003882,2400
21.92090526,2498
21.9317717,2413
21.94263814,2439
21.95350458,2480
21.96437102,2503
21.97523746,2371
21.9861039,2394
21.99697034,2455
22.00783678,2417
22.01870322,2484
22.02956966,2447
22.0404361,2449
22.05130254,2360
22.06216898,2464
22.07303542,2464
22.08390186,2375
22.0947683,2424
22.10563474,2421
22.11650118,2577
22.12736762,2440
22.13823406,2468
22.1491005,2390
22.15996694,2600
22.17083338,2524
22.18169982,2483
22.19256626,2585
22.2034327,2548
22.21429914,2513
22.22516558,2614
22.23603202,2560
22.24689846,2554
22.2577649,2389
22.26863134,2621
22.27949778,2615
22.29036422,2533
22.30123066,2608
22.3120971,2561
22.32296354,2574
22.33382998,2692
22.34469642,2639
22.35556286,2576
22.3664293,2666
22.37729574,2794
22.38816218,2827
22.39902862,2741
22.40989506,2846
22.4207615,2842
22.43162794,2812
22.44249438,2766
22.45336082,2851
22.46422726,2851
22.4750937,2753
22.48596014,2836
22.49682658,2957
22.50769302,2979
22.51855946,3020
22.5294259,3098
22.54029234,2931
22.55115878,3069
22.56202522,3117
22.57289166,2993
22.5837581,3010
22.59462454,3100
22.60549098,3198
22.61635742,3242
22.62722386,3236
22.6380903,3269
22.64895674,3267
22.65982318,3320
22.67068962,3275
22.68155606,3394
22.6924225,3355
22.70328894,3402
22.71415538,3349
22.72502182,3541
22.73588826,3402
22.7467547,3451
22.75762114,3439
22.76848758,3422
22.77935402,3543
22.79022046,3505
22.8010869,3557
22.81195334,3479
22.82281978,3551
22.83368622,3416
22.84455266,3438
22.8554191,3549
22.86628554,3483
22.87715198,3318
22.88801842,3528
22.89888486,3286
22.9097513,3328
22.92061774,3284
22.93148418,3406
22.94235062,3311
22.95321706,3267
22.9640835,3239
22.97494994,3354
22.98581638,3255
22.99668282,3277
23.00754926,3291
23.0184157,3353
23.02928214,3422
23.04014858,3328
23.05101502,3267
23.06188146,3261
23.0727479,3353
23.08361434,3204
23.09448078,3264
23.10534722,3202
23.11621366,3342
23.1270801,3197
23.13794654,3284
23.14881298,3252
23.15967942,3311
23.17054586,3267
23.1814123,3256
23.19227874,3212
23.20314518,3273
23.21401162,3213
23.22487806,3298
23.2357445,3298
23.24661094,3194
23.25747738,3268
23.26834382,3298
23.27921026,3228
23.2900767,3226
23.30094314,3239
23.31180958,3146
23.32267602,3275
23.33354246,3158
23.3444089,3196
23.35527534,3093
23.36614178,3133
23.37700822,3178
23.38787466,3250
23.3987411,3133
23.40960754,3088
23.42047398,3206
23.43134042,3179
23.44220686,3202
23.4530733,3105
23.46393974,3154
23.47480618,3190
23.48567262,3213
23.49653906,3228
23.5074055,3162
23.51827194,3153
23.52913838,3212
23.54000482,3137
23.55087126,3157
23.5617377,3130
23.57260414,3092
23.58347058,3168
23.59433702,3145
23.60520346,3181
23.6160699,3146
23.62693634,3152
23.63780278,3080
23.64866922,3094
23.65953566,3160
23.6704021,3093
23.68126854,3234
23.69213498,3257
23.70300142,3191
23.71386786,3193
23.7247343,3221
23.73560074,3141
23.74646718,3261
23.75733362,3210
23.76820006,3232
23.7790665,3218
23.78993294,3249
23.80079938,3174
23.81166582,3392
23.82253226,3125
23.8333987,3353
23.84426514,3395
23.85513158,3328
23.86599802,3363
23.87686446,3392
23.8877309,3270
23.89859734,3412
23.90946378,3449
23.92033022,3484
23.93119666,3393
23.9420631,3374
23.95292954,3421
23.96379598,3371
23.97466242,3225
23.98552886,3330
23.9963953,3312
24.00726174,3339
24.01812818,3335
24.02899462,3216
24.03986106,3310
24.0507275,3284
24.06159394,3271
24.07246038,3217
24.08332682,3266
24.09419326,3161
24.1050597,3251
24.11592614,3270
24.12679258,3238
24.13765902,3226
24.14852546,3280
24.1593919,3331
24.17025834,3246
24.18112478,3273
24.19199122,3229
24.20285766,3165
24.2137241,3191
24.22459054,3228
24.23545698,3269
24.24632342,3288
24.25718986,3292
24.2680563,3441
24.27892274,3314
24.28978918,3192
24.30065562,3298
24.31152206,3253
24.3223885,3309
24.33325494,3342
24.34412138,3239
24.35498782,3187
24.36585426,3213
24.3767207,3180
24.38758714,3240
24.39845358,3312
24.40932002,3261
24.42018646,3287
24.4310529,3303
24.44191934,3228
24.45278578,3306
24.46365222,3285
24.47451866,3336
24.4853851,3276
24.49625154,3351
24.50711798,3189
24.51798442,3248
24.52885086,3290
24.5397173,3217
24.55058374,3196
24.56145018,3172
24.57231662,3164
24.58318306,3187
24.5940495,3156
24.60491594,3284
24.61578238,3266
24.62664882,3101
24.63751526,3208
24.6483817,3226
24.65924814,3248
24.67011458,3207
24.68098102,3168
24.69184746,3155
24.7027139,3170
24.71358034,3099
24.72444678,3090
24.73531322,3043
24.74617966,3123
24.7570461,3143
24.76791254,3140
24.77877898,3090
24.78964542,3047
24.80051186,3110
24.8113783,3121
24.82224474,3132
24.83311118,3054
24.84397762,3014
24.85484406,3115
24.8657105,3107
24.87657694,3072
24.88744338,3033
24.89830982,3102
24.90917626,3101
24.9200427,3058
24.93090914,3012
24.94177558,3081
24.95264202,2992
24.96350846,3116
24.9743749,3081
24.98524134,3001
24.99610778,3051
25.00697422,3081
25.01784066,3058
25.0287071,3065
25.03957354,3116
25.05043998,3064
25.06130642,3039
25.07217286,3017
25.0830393,3147
25.09390574,3196
25.10477218,3057
25.11563862,3102
25.12650506,3090
25.1373715,2963
25.14823794,3003
25.15910438,3128
25.16997082,3043
25.18083726,3006
25.1917037,3107
25.20257014,3004
25.21343658,3027
25.22430302,3055
25.23516946,3085
25.2460359,3094
25.25690234,3111
25.26776878,2968
25.27863522,3000
25.28950166,3001
25.3003681,2993
25.31123454,3076
25.32210098,3010
25.33296742,2861
25.34383386,2945
25.3547003,2997
25.36556674,2935
25.37643318,2912
25.38729962,2986
25.39816606,2991
25.4090325,2954
25.41989894,2931
25.43076538,2929
25.44163182,2953
25.45249826,2923
25.4633647,2964
25.47423114,2945
25.48509758,2897
25.49596402,2913
25.50683046,2888
25.5176969,2958
25.52856334,2781
25.53942978,3009
25.55029622,2866
25.56116266,2882
25.5720291,2989
25.58289554,2894
25.59376198,2964
25.60462842,2914
25.61549486,3020
25.6263613,3035
25.63722774,2935
25.64809418,2889
25.65896062,2899
25.66982706,2916
25.6806935,2955
25.69155994,2957
25.70242638,2952
25.71329282,2859
25.72415926,2871
25.7350257,2845
25.74589214,3019
25.75675858,2978
25.76762502,2910
25.77849146,3012
25.7893579,3020
25.80022434,2917
25.81109078,3043
25.82195722,3032
25.83282366,2949
25.8436901,2973
25.85455654,2893
25.86542298,2871
25.87628942,3030
25.88715586,2923
25.8980223,3071
25.90888874,2975
25.91975518,2881
25.93062162,2957
25.94148806,2910
25.9523545,2862
25.96322094,3011
25.97408738,2881
25.98495382,3005
25.99582026,2929
26.0066867,2888
26.01755314,2961
26.02841958,2866
26.03928602,2871
26.05015246,2948
26.0610189,2808
26.07188534,2994
26.08275178,2984
26.09361822,2977
26.10448466,2970
26.1153511,2920
26.12621754,2915
26.13708398,2940
26.14795042,2844
26.15881686,2860
26.1696833,2953
26.18054974,2860
26.19141618,2915
26.20228262,2885
26.21314906,2909
26.2240155,2904
26.23488194,2940
26.24574838,2936
26.25661482,2967
26.26748126,2892
26.2783477,2953
26.28921414,2879
26.30008058,2971
26.31094702,3012
26.32181346,2984
26.3326799,2900
26.34354634,2934
26.35441278,2938
26.36527922,3025
26.37614566,2957
26.3870121,2965
26.39787854,3018
26.40874498,2844
26.41961142,3004
26.43047786,3035
26.4413443,3030
26.45221074,3004
26.46307718,3069
26.47394362,2998
26.48481006,2938
26.4956765,2948
26.50654294,3011
26.51740938,3025
26.52827582,2954
26.53914226,2939
26.5500087,2899
26.56087514,2941
26.57174158,2942
26.58260802,2983
26.59347446,2978
26.6043409,3045
26.61520734,3012
26.62607378,3039
26.63694022,2937
26.64780666,2953
26.6586731,3058
26.66953954,3033
26.68040598,2989
26.69127242,2971
26.70213886,3117
26.7130053,3011
26.72387174,3001
26.73473818,2982
26.74560462,2982
26.75647106,3060
26.7673375,2998
26.77820394,3062
26.78907038,3032
26.79993682,3194
26.81080326,2964
26.8216697,3044
26.83253614,3036
26.84340258,3046
26.85426902,2999
26.86513546,3082
26.8760019,3094
26.88686834,3118
26.89773478,3020
26.90860122,3226
26.91946766,3076
26.9303341,3138
26.94120054,3156
26.95206698,3124
26.96293342,3154
26.97379986,3159
26.9846663,3151
26.99553274,3168
27.00639918,3139
27.01726562,3239
27.02813206,3109
27.0389985,3153
27.04986494,3104
27.06073138,3218
27.07159782,3150
27.08246426,3223
27.0933307,3292
27.10419714,3207
27.11506358,3204
27.12593002,3152
27.13679646,3230
27.1476629,3310
27.15852934,3200
27.16939578,3194
27.18026222,3331
27.19112866,3351
27.2019951,3101
27.21286154,3328
27.22372798,3242
27.23459442,3287
27.24546086,3310
27.2563273,3215
27.26719374,3268
27.27806018,3226
27.28892662,3225
27.29979306,3280
27.3106595,3277
27.32152594,3271
27.33239238,3362
27.34325882,3256
27.35412526,3292
27.3649917,3311
27.37585814,3313
27.38672458,3454
27.39759102,3397
27.40845746,3422
27.4193239,3425
27.43019034,3361
27.44105678,3502
27.45192322,3425
27.46278966,3367
27.4736561,3562
27.48452254,3546
27.49538898,3463
27.50625542,3419
27.51712186,3417
27.5279883,3551
27.53885474,3532
27.54972118,3590
27.56058762,3604
27.57145406,3575
27.5823205,3568
27.59318694,3716
27.60405338,3688
27.61491982,3576
27.62578626,3655
27.6366527,3610
27.64751914,3740
27.65838558,3752
27.66925202,3721
27.68011846,3806
27.6909849,3771
27.70185134,3835
27.71271778,3828
27.72358422,3820
27.73445066,3810
27.7453171,3914
27.75618354,3932
27.76704998,4035
27.77791642,4064
27.78878286,3950
27.7996493,4121
27.81051574,4120
27.82138218,4195
27.83224862,4146
27.84311506,4186
27.8539815,4177
27.86484794,4136
27.87571438,4345
27.88658082,4264
27.89744726,4514
27.9083137,4416
27.91918014,4421
27.93004658,4450
27.94091302,4512
27.95177946,4670
27.9626459,4613
27.97351234,4665
27.98437878,4743
27.99524522,4804
28.00611166,4943
28.0169781,4827
28.02784454,4874
28.03871098,5109
28.04957742,4898
28.06044386,5139
28.0713103,5072
28.08217674,5122
28.09304318,5281
28.10390962,5324
28.11477606,5304
28.1256425,5455
28.13650894,5755
28.14737538,5812
28.15824182,5781
28.16910826,5879
28.1799747,6073
28.19084114,6191
28.20170758,6432
28.21257402,6432
28.22344046,6485
28.2343069,6630
28.24517334,6672
28.25603978,6794
28.26690622,7146
28.27777266,7253
28.2886391,7491
28.29950554,7669
28.31037198,7660
28.32123842,8113
28.33210486,8311
28.3429713,8486
28.35383774,8794
28.36470418,9157
28.37557062,9547
28.38643706,9596
28.3973035,10215
28.40816994,10571
28.41903638,10926
28.42990282,11289
28.44076926,11652
28.4516357,12448
28.46250214,12988
28.47336858,13418
28.48423502,13989
28.49510146,14663
28.5059679,15337
28.51683434,16035
28.52770078,16746
28.53856722,17238
28.54943366,17966
28.5603001,18495
28.57116654,19120
28.58203298,19600
28.59289942,20045
28.60376586,20197
28.6146323,20605
28.62549874,20641
28.63636518,20611
28.64723162,20125
28.65809806,19748
28.6689645,19350
28.67983094,18661
28.69069738,18118
28.70156382,17518
28.71243026,16852
28.7232967,15838
28.73416314,15404
28.74502958,14592
28.75589602,14291
28.76676246,13676
28.7776289,13041
28.78849534,12357
28.79936178,11936
28.81022822,11553
28.82109466,11120
28.8319611,10774
28.84282754,10330
28.85369398,9982
28.86456042,9696
28.87542686,9381
28.8862933,9295
28.89715974,9106
28.90802618,9008
28.91889262,8662
28.92975906,8351
28.9406255,8294
28.95149194,8189
28.96235838,7876
28.97322482,7877
28.98409126,7593
28.9949577,7626
29.00582414,7288
29.01669058,7297
29.02755702,7262
29.03842346,7178
29.0492899,6984
29.06015634,7069
29.07102278,6972
29.08188922,6939
29.09275566,6800
29.1036221,6591
29.11448854,6719
29.12535498,6468
29.13622142,6317
29.14708786,6412
29.1579543,6164
29.16882074,6120
29.17968718,6172
29.19055362,6029
29.20142006,6068
29.2122865,5947
29.22315294,5798
29.23401938,5857
29.24488582,5591
29.25575226,5659
29.2666187,5643
29.27748514,5634
29.28835158,5487
29.29921802,5574
29.31008446,5345
29.3209509,5223
29.33181734,5388
29.34268378,5123
29.35355022,5324
29.36441666,5344
29.3752831,5229
29.38614954,5227
29.39701598,5215
29.40788242,5048
29.41874886,4915
29.4296153,4960
29.44048174,4986
29.45134818,4892
29.46221462,5000
29.47308106,5048
29.4839475,4897
29.49481394,4888
29.50568038,4894
29.51654682,4904
29.52741326,4887
29.5382797,4715
29.54914614,4911
29.56001258,4669
29.57087902,4659
29.58174546,4606
29.5926119,4753
29.60347834,4707
29.61434478,4591
29.62521122,4550
29.63607766,4446
29.6469441,4512
29.65781054,4454
29.66867698,4485
29.67954342,4351
29.69040986,4408
29.7012763,4312
29.71214274,4388
29.72300918,4422
29.73387562,4308
29.74474206,4381
29.7556085,4340
29.76647494,4546
29.77734138,4380
29.78820782,4251
29.79907426,4185
29.8099407,4307
29.82080714,4122
29.83167358,4359
29.84254002,4313
29.85340646,4309
29.8642729,4267
29.87513934,4255
29.88600578,4154
29.89687222,4272
29.90773866,4305
29.9186051,4258
29.92947154,4293
29.94033798,4230
29.95120442,4280
29.96207086,4330
29.9729373,4228
29.98380374,4114
29.99467018,4258
