Pos. [°2?],Intensity [Counts],,,
6.6419,5817.7945,,,
6.6639,5891.3874,,,
6.6859,5996.1593,,,
6.7079,5946.3505,,,
6.7299,5827.5349,,,
6.7519,5749.8274,,,
6.7739,5764.6087,,,
6.7959,5701.6189,,,
6.8179,5777.475,,,
6.8399,5778.1165,,,
6.8619,5808.4523,,,
6.8839,5861.7198,,,
6.9059,5713.7541,,,
6.9279,5666.5762,,,
6.9499,5778.3275,,,
6.9719,5649.8662,,,
6.9939,5687.6274,,,
7.0159,5694.4779,,,
7.0379,5669.704,,,
7.0599,5692.4351,,,
7.0819,5651.5988,,,
7.1039,5620.7453,,,
7.1259,5494.5781,,,
7.1479,5425.8097,,,
7.1699,5586.8506,,,
7.1919,5530.9705,,,
7.2139,5582.6313,,,
7.2359,5476.4365,,,Q= Quartz (SiO2)
7.2579,5430.3205,,,K = Kaolinite (Al2Si2O5(OH)4)
7.2799,5362.1548,,,M = Muscovite (Mica Group) (Al2K2O6Si)
7.3019,5551.3472,,,H = Halite (NaCl)
7.3239,5374.9532,,,"A = Albite (Feldspar, NaAlSi3O8)"
7.3459,5344.2389,,,
7.3679,5399.6593,,,
7.3899,5304.3511,,,
7.4119,5510.7773,,,
7.4339,5398.7178,,,
7.4559,5384.3195,,,
7.4779,5253.3983,,,
7.4999,5361.6981,,,
7.5219,5384.4159,,,
7.5439,5404.7257,,,
7.5659,5359.586,,,
7.5879,5310.2129,,,
7.6099,5362.7021,,,
7.6319,5325.8874,,,
7.6539,5290.3825,,,
7.6759,5377.7094,,,
7.6979,5254.2192,,,
7.7199,5210.2183,,,
7.7419,5354.115,,,
7.7639,5327.4621,,,
7.7859,5314.3511,,,
7.8079,5325.3731,,,
7.8299,5232.4327,,,
7.8519,5331.3938,,,
7.8739,5288.9085,,,
7.8959,5168.6175,,,
7.9179,5232.5998,,,
7.9399,5211.4425,,,
7.9619,5205.7522,,,
7.9839,5139.7272,,,
8.0059,5125.1356,,,
8.0279,5086.8938,,,
8.0499,5101.7944,,,
8.0719,5094.6181,,,
8.0939,5191.7325,,,
8.1159,5202.0541,,,
8.1379,5203.5928,,,
8.1599,5091.8766,,,
8.1819,5080.4297,,,
8.2039,5046.5251,,,
8.2259,5009.7541,,,
8.2479,5000.4199,,,
8.2699,5073.6991,,,
8.2919,5076.6067,,,
8.3139,5019.1239,,,
8.3359,5076.5974,,,
8.3579,5125.4946,,,
8.3799,5117.3402,,,
8.4019,5086.6725,,,
8.4239,5032.0437,,,
8.4459,4985.5034,,,
8.4679,5005.1696,,,
8.4899,4982.0983,,,
8.5119,4983.5585,,,
8.5339,4909.6283,,,
8.5559,4955.4022,,,
8.5779,4840.9704,,,
8.5999,4903.3482,,,
8.6219,4848.8347,,,
8.6439,4878.7955,,,
8.6659,4746.7905,,,
8.6879,4761.5723,,,
8.7099,4916.7965,,,
8.7319,4926.8495,,,
8.7539,4857.8889,,,
8.7759,4820.4582,,,
8.7979,4769.2655,,,
8.8199,4764.5172,,,
8.8419,4750.2881,,,
8.8639,5007.1624,,,
8.8859,4884.1405,,,
8.9079,4764.1632,,,
8.9299,4778.9115,,,
8.9519,4728.8077,,,
8.9739,4724.7021,,,
8.9959,4769.736,,,
9.0179,4682.3982,,,
9.0399,4653.4361,,,
9.0619,4623.5044,,,
9.0839,4770.1702,,,
9.1059,4665.8888,,,
9.1279,4756.739,,,
9.1499,4657.0993,,,
9.1719,4589.735,,,
9.1939,4652.8672,,,
9.2159,4611.6348,,,
9.2379,4760.3018,,,
9.2599,4697.6268,,,
9.2819,4557.6756,,,
9.3039,4627.9587,,,
9.3259,4597.3362,,,
9.3479,4516.3422,,,
9.3699,4516.121,,,
9.3919,4568.972,,,
9.4139,4666.8722,,,
9.4359,4642.7168,,,
9.4579,4635.5309,,,
9.4799,4482.7911,,,
9.5019,4598.4769,,,
9.5239,4545.3363,,,
9.5459,4503.5388,,,
9.5679,4404.0453,,,
9.5899,4481.1858,,,
9.6119,4448.3432,,,
9.6339,4451.9371,,,
9.6559,4517.5502,,,
9.6779,4487.3175,,,
9.6999,4352.5762,,,
9.7219,4371.3628,,,
9.7439,4407.0581,,,
9.7659,4451.4582,,,
9.7879,4403.6637,,,
9.8099,4442.8584,,,
9.8319,4473.5796,,,
9.8539,4406.7964,,,
9.8759,4398.9937,,,
9.8979,4514.9095,,,
9.9199,4485.5531,,,
9.9419,4462.8191,,,
9.9639,4435.941,,,
9.9859,4464.2685,,,
10.0079,4508.1706,,,
10.0299,4491.5093,,,
10.0519,4511.118,,,
10.0739,4544.3963,,,
10.0959,4621.359,,,
10.1179,4665.5044,,,
10.1399,4649.031,,,
10.1619,4655.1593,,,
10.1839,4732.7803,,,
10.2059,4762.7964,,,
10.2279,4856.2302,,,
10.2499,4935.3628,,,
10.2719,4970.6672,,,
10.2939,4947.5201,,,
10.3159,4826.4335,,,
10.3379,4678.5663,,,
10.3599,4540.8967,,,
10.3819,4438.2035,,,
10.4039,4264.0825,,,
10.4259,4103.4699,,,
10.4479,4203.0444,,,
10.4699,4200.0275,,,
10.4919,4133.5762,,,
10.5139,4052.5486,,,
10.5359,4056.7473,,,
10.5579,3990.9351,,,
10.5799,4024.4617,,,
10.6019,4083.3727,,,
10.6239,4043.0039,,,
10.6459,4016.9734,,,
10.6679,3886.935,,,
10.6899,3954.236,,,
10.7119,3914.084,,,
10.7339,3823.7905,,,
10.7559,3911.5891,,,
10.7779,3974.7876,,,
10.7999,3796.7516,,,
10.8219,3800.5959,,,
10.8439,3806.7271,,,
10.8659,3894.1525,,,
10.8879,3984.3309,,,
10.9099,4017.4513,,,
10.9319,3941.4164,,,
10.9539,4041.7591,,,
10.9759,4002.3981,,,
10.9979,3767.5035,,,
11.0199,3782.0374,,,
11.0419,3760.1593,,,
11.0639,3738.6194,,,
11.0859,3647.8368,,,
11.1079,3749.8716,,,
11.1299,3647.1072,,,
11.1519,3625.9853,,,
11.1739,3706.7846,,,
11.1959,3658.356,,,
11.2179,3717.8505,,,
11.2399,3620.0001,,,
11.2619,3704.9892,,,
11.2839,3685.4425,,,
11.3059,3730.3275,,,
11.3279,3810.582,,,
11.3499,3657.0845,,,
11.3719,3655.6786,,,
11.3939,3772.7079,,,
11.4159,3690.145,,,
11.4379,3674.1858,,,
11.4599,3597.0613,,,
11.4819,3492.0934,,,
11.5039,3531.0841,,,
11.5259,3537.7148,,,
11.5479,3561.4543,,,
11.5699,3594.5339,,,
11.5919,3559.1765,,,
11.6139,3552.7217,,,
11.6359,3515.4661,,,
11.6579,3484.3913,,,
11.6799,3509.561,,,
11.7019,3621.2301,,,
11.7239,3603.5058,,,
11.7459,3531.0757,,,
11.7679,3546.9218,,,
11.7899,3530.5732,,,
11.8119,3516.5688,,,
11.8339,3498.0472,,,
11.8559,3414.0614,,,
11.8779,3432.6973,,,
11.8999,3487.584,,,
11.9219,3465.1662,,,
11.9439,3498.3988,,,
11.9659,3485.2241,,,
11.9879,3393.79,,,
12.0099,3431.5753,,,
12.0319,3470.7714,,,
12.0539,3451.6785,,,
12.0759,3460.5757,,,
12.0979,3515.5133,,,
12.1199,3566.6741,,,
12.1419,3553.176,,,
12.1639,3507.9041,,,
12.1859,3511.0747,,,
12.2079,3398.022,,,
12.2299,3354.4779,,,
12.2519,3380.4258,,,
12.2739,3436.6382,,,
12.2959,3390.9557,,,
12.3179,3405.6018,,,
12.3399,3363.6583,,,
12.3619,3403.7523,,,
12.3839,3418,,,
12.4059,3366.4601,,,
12.4279,3297.7035,,,
12.4499,3407.3452,,,
12.4719,3272.6862,,,
12.4939,3350.0709,,,
12.5159,3410.857,,,
12.5379,3360.8141,,,
12.5599,3398.3024,,,
12.5819,3392.9194,,,
12.6039,3392,,,
12.6259,3279.0796,,,
12.6479,3311.0851,,,
12.6699,3415.3521,,,
12.6919,3286.9866,,,
12.7139,3318.6559,,,
12.7359,3359.2115,,,
12.7579,3443.938,,,
12.7799,3370.8367,,,
12.8019,3292.0167,,,
12.8239,3267.174,,,
12.8459,3253.2144,,,
12.8679,3271,,,
12.8899,3272.9469,,,
12.9119,3302.3732,,,
12.9339,3381.8161,,,
12.9559,3337.5914,,,
12.9779,3255.9351,,,
12.9999,3254.8462,,,
13.0219,3313.8879,,,
13.0439,3264.4951,,,
13.0659,3256.2764,,,
13.0879,3365.0442,,,
13.1099,3332.1878,,,
13.1319,3334.8406,,,
13.1539,3276.7228,,,
13.1759,3330.703,,,
13.1979,3274.3108,,,
13.2199,3359.4513,,,
13.2419,3344.2812,,,
13.2639,3356.8412,,,
13.2859,3337.3804,,,
13.3079,3272.1692,,,
13.3299,3326.4052,,,
13.3519,3370.8407,,,
13.3739,3362.2822,,,
13.3959,3348.7507,,,
13.4179,3318.0295,,,
13.4399,3330.4956,,,
13.4619,3382.5693,,,
13.4839,3401.7257,,,
13.5059,3416.1918,,,
13.5279,3459.9298,,,
13.5499,3440.6164,,,
13.5719,3423.568,,,
13.5939,3524.7631,,,
13.6159,3472.5441,,,
13.6379,3422.4986,,,
13.6599,3499.9012,,,
13.6819,3490.3362,,,
13.7039,3542.3551,,,
13.7259,3553.8888,,,
13.7479,3550.4027,,,
13.7699,3575.8171,,,
13.7919,3574.7016,,,
13.8139,3673.7317,,,
13.8359,3805.3393,,,
13.8579,3743.2771,,,
13.8799,3779.8054,,,
13.9019,3855.2704,,,
13.9239,3899.975,,,
13.9459,3966.5281,,,
13.9679,4070.8187,,,
13.9899,4122.4671,,,
14.0119,4176.2124,,,
14.0339,4206.6421,,,
14.0559,4451.4747,,,
14.0779,4499.8938,,,
14.0999,4560.6279,,,
14.1219,4722.0464,,,
14.1439,4940.3335,,,
14.1659,5042.4937,,,
14.1879,5205.715,,,
14.2099,5442.3601,,,
14.2319,5676.9594,,,
14.2539,5933.4398,,,
14.2759,6061.7346,,,
14.2979,6228.2715,,,
14.3199,6261.5364,,,
14.3419,6326.8791,,,
14.3639,6200.8484,,,
14.3859,6123.2998,,,
14.4079,5837.9629,,,
14.4299,5497.333,,,
14.4519,5051.3221,,,
14.4739,4785.7697,,,
14.4959,4412.3035,,,
14.5179,4174.458,,,
14.5399,3965.1931,,,
14.5619,3787.5898,,,
14.5839,3595.6735,,,
14.6059,3559,,,
14.6279,3556.6799,,,
14.6499,3507.5819,,,
14.6719,3342.8805,,,
14.6939,3274.5839,,,
14.7159,3067.8211,,,
14.7379,3150.988,,,
14.7599,3003.7906,,,
14.7819,3057.6036,,,
14.8039,2900.4662,,,
14.8259,2984.3609,,,
14.8479,2969.6592,,,
14.8699,2887.4337,,,
14.8919,2917.9551,,,
14.9139,2800.0727,,,
14.9359,2756.5031,,,
14.9579,2862.2212,,,
14.9799,2821.6804,,,
15.0019,2769.8466,,,
15.0239,2698.3475,,,
15.0459,2619.3068,,,
15.0679,2630.6814,,,
15.0899,2648.0739,,,
15.1119,2763.7836,,,
15.1339,2710.5456,,,
15.1559,2655.8992,,,
15.1779,2646.8623,,,
15.1999,2631.8879,,,
15.2219,2658.0875,,,
15.2439,2682.5492,,,
15.2659,2692.0265,,,
15.2879,2646.5914,,,
15.3099,2645.7169,,,
15.3319,2673.3215,,,
15.3539,2602.6538,,,
15.3759,2553.7989,,,
15.3979,2575.3864,,,
15.4199,2541.8465,,,
15.4419,2499.9144,,,
15.4639,2511.2168,,,
15.4859,2550.4032,,,
15.5079,2573.5511,,,
15.5299,2558.7876,,,
15.5519,2531.4557,,,
15.5739,2566.4524,,,
15.5959,2558.7802,,,
15.6179,2535.0629,,,
15.6399,2540.1244,,,
15.6619,2501.2212,,,
15.6839,2457.2173,,,
15.7059,2490.3373,,,
15.7279,2505.5855,,,
15.7499,2464.2517,,,
15.7719,2491.0133,,,
15.7939,2511.4218,,,
15.8159,2517.0624,,,
15.8379,2530.768,,,
15.8599,2559.677,,,
15.8819,2485.9114,,,
15.9039,2402.0722,,,
15.9259,2472.8821,,,
15.9479,2472.2945,,,
15.9699,2467.6185,,,
15.9919,2471.2861,,,
16.0139,2526.1987,,,
16.0359,2499.7709,,,
16.0579,2559.0974,,,
16.0799,2513.4046,,,
16.1019,2555.3304,,,
16.1239,2499.3303,,,
16.1459,2508.3363,,,
16.1679,2481.4842,,,
16.1899,2429.5958,,,
16.2119,2450.5556,,,
16.2339,2472.0915,,,
16.2559,2398.3849,,,
16.2779,2416.6077,,,
16.2999,2386.1981,,,
16.3219,2415.6814,,,
16.3439,2364.1648,,,
16.3659,2476.58,,,
16.3879,2339.208,,,
16.4099,2408.3569,,,
16.4319,2363.6062,,,
16.4539,2369.6902,,,
16.4759,2341.6209,,,
16.4979,2336.0256,,,
16.5199,2398.2418,,,
16.5419,2344.4238,,,
16.5639,2331.9386,,,
16.5859,2354.9439,,,
16.6079,2320.3078,,,
16.6299,2360.6874,,,
16.6519,2416.3671,,,
16.6739,2305.4455,,,
16.6959,2378.1327,,,
16.7179,2373.5399,,,
16.7399,2389.2398,,,
16.7619,2334.2379,,,
16.7839,2329,,,
16.8059,2335.0787,,,
16.8279,2341.765,,,
16.8499,2337.0532,,,
16.8719,2353.9458,,,
16.8939,2334.476,,,
16.9159,2387.0589,,,
16.9379,2351.6008,,,
16.9599,2385.1898,,,
16.9819,2434.2419,,,
17.0039,2404.2777,,,
17.0259,2340.1898,,,
17.0479,2355.8186,,,
17.0699,2325.4679,,,
17.0919,2270.7444,,,
17.1139,2314.2508,,,
17.1359,2351.1799,,,
17.1579,2317.0275,,,
17.1799,2304.2788,,,
17.2019,2322.9459,,,
17.2239,2303.9198,,,
17.2459,2327.2125,,,
17.2679,2311.9389,,,
17.2899,2291.9893,,,
17.3119,2295.8451,,,
17.3339,2283.4268,,,
17.3559,2312.3432,,,
17.3779,2320.6578,,,
17.3999,2307.0939,,,
17.4219,2284.6273,,,
17.4439,2270.8363,,,
17.4659,2298.6716,,,
17.4879,2330.7758,,,
17.5099,2295.4749,,,
17.5319,2283.5467,,,
17.5539,2269.9508,,,
17.5759,2292.3791,,,
17.5979,2308.5939,,,
17.6199,2293.9164,,,
17.6419,2257.5221,,,
17.6639,2222.0634,,,
17.6859,2286.1869,,,
17.7079,2278.351,,,
17.7299,2265.2448,,,
17.7519,2277.6819,,,
17.7739,2341.4662,,,
17.7959,2319.3357,,,
17.8179,2254.7649,,,
17.8399,2253.3938,,,
17.8619,2277.5231,,,
17.8839,2309.9927,,,
17.9059,2322.9086,,,
17.9279,2156.9177,,,
17.9499,2265.3305,,,
17.9719,2177.7329,,,
17.9939,2295.0228,,,
18.0159,2228.7197,,,
18.0379,2251.0443,,,
18.0599,2263.7227,,,
18.0819,2216.5191,,,
18.1039,2193.1255,,,
18.1259,2277.7247,,,
18.1479,2260.8403,,,
18.1699,2362.8966,,,
18.1919,2260.4051,,,
18.2139,2262.462,,,
18.2359,2182.3319,,,
18.2579,2208.5496,,,
18.2799,2181.1037,,,
18.3019,2161.0855,,,
18.3239,2146.7071,,,
18.3459,2220.8477,,,
18.3679,2298.8717,,,
18.3899,2274.2271,,,
18.4119,2245.942,,,
18.4339,2254.0972,,,
18.4559,2162.2376,,,
18.4779,2226.529,,,
18.4999,2183.9512,,,
18.5219,2127.6805,,,
18.5439,2188.0757,,,
18.5659,2195.5547,,,
18.5879,2283.2532,,,
18.6099,2267.0362,,,
18.6319,2187.5575,,,
18.6539,2169.756,,,
18.6759,2142.7833,,,
18.6979,2218,,,
18.7199,2229.1612,,,
18.7419,2212.8417,,,
18.7639,2229.9868,,,
18.7859,2253.8426,,,
18.8079,2220.6593,,,
18.8299,2230.4867,,,
18.8519,2167.7398,,,
18.8739,2137.1663,,,
18.8959,2152.2683,,,
18.9179,2114.5998,,,
18.9399,2119.8181,,,
18.9619,2130.0414,,,
18.9839,2144.6583,,,
19.0059,2142.6028,,,
19.0279,2185.6505,,,
19.0499,2199.5103,,,
19.0719,2179.6617,,,
19.0939,2148.8259,,,
19.1159,2170.0817,,,
19.1379,2144.5053,,,
19.1599,2121.5177,,,
19.1819,2124.7365,,,
19.2039,2189.4593,,,
19.2259,2230.2301,,,
19.2479,2178.673,,,
19.2699,2182.9922,,,
19.2919,2152.7713,,,
19.3139,2200.8133,,,
19.3359,2236.3796,,,
19.3579,2235.5959,,,
19.3799,2186.4237,,,
19.4019,2124.1278,,,
19.4239,2181.155,,,
19.4459,2174.6971,,,
19.4679,2166.2906,,,
19.4899,2135.1917,,,
19.5119,2120.4833,,,
19.5339,2180.6304,,,
19.5559,2160.2418,,,
19.5779,2124.7758,,,
19.5999,2193.5168,,,
19.6219,2151.0796,,,
19.6439,2191.8491,,,
19.6659,2176.3982,,,
19.6879,2220.8673,,,
19.7099,2202.7345,,,
19.7319,2192.7119,,,
19.7539,2139.3716,,,
19.7759,2141.5492,,,
19.7979,2174.2282,,,
19.8199,2183.6814,,,
19.8419,2069.2486,,,
19.8639,2206.8207,,,
19.8859,2122.2565,,,
19.9079,2109.2149,,,
19.9299,2130.9616,,,
19.9519,2086.5104,,,
19.9739,2159.8024,,,
19.9959,2198.8137,,,
20.0179,2226.2301,,,
20.0399,2202.8338,,,
20.0619,2201.5723,,,
20.0839,2201.5088,,,
20.1059,2166.4367,,,
20.1279,2233.61,,,
20.1499,2176.4809,,,
20.1719,2196.2561,,,
20.1939,2165.7503,,,
20.2159,2192.3672,,,
20.2379,2193.9106,,,
20.2599,2218.022,,,
20.2819,2178.9145,,,
20.3039,2200.7064,,,
20.3259,2146.4002,,,
20.3479,2167.972,,,
20.3699,2213.1053,,,
20.3919,2254.5949,,,
20.4139,2284.4779,,,
20.4359,2271.7859,,,
20.4579,2175.3639,,,
20.4799,2224.8673,,,
20.5019,2269.9077,,,
20.5239,2311.2837,,,
20.5459,2298.6342,,,
20.5679,2314.6353,,,
20.5899,2344.3422,,,
20.6119,2354.4425,,,
20.6339,2381.4278,,,
20.6559,2420.9533,,,
20.6779,2444.9558,,,
20.6999,2399.8479,,,
20.7219,2334.3589,,,
20.7439,2316.6135,,,
20.7659,2292.7374,,,
20.7879,2306.0473,,,
20.8099,2330,,,
20.8319,2266.4064,,,
20.8539,2232.6657,,,
20.8759,2299.7627,,,
20.8979,2250.2594,,,
20.9199,2180.8505,,,
20.9419,2234.006,,,
20.9639,2262.411,,,
20.9859,2227.2546,,,
21.0079,2203.3849,,,
21.0299,2216.5408,,,
21.0519,2261.0178,,,
21.0739,2229.1208,,,
21.0959,2225.884,,,
21.1179,2248.651,,,
21.1399,2212.1415,,,
21.1619,2210.3284,,,
21.1839,2243.0001,,,
21.2059,2222.8849,,,
21.2279,2279.2125,,,
21.2499,2267.0815,,,
21.2719,2260.6283,,,
21.2939,2228.3018,,,
21.3159,2252.4307,,,
21.3379,2218.1622,,,
21.3599,2156.3052,,,
21.3819,2174.9824,,,
21.4039,2246.9205,,,
21.4259,2230.705,,,
21.4479,2246.0035,,,
21.4699,2223.4218,,,
21.4919,2286.1781,,,
21.5139,2224.1926,,,
21.5359,2188.5147,,,
21.5579,2221.3845,,,
21.5799,2260.795,,,
21.6019,2254.3982,,,
21.6239,2204.6297,,,
21.6459,2205.941,,,
21.6679,2357.8719,,,
21.6899,2189.2115,,,
21.7119,2232.3786,,,
21.7339,2253.8525,,,
21.7559,2247.7463,,,
21.7779,2221.8123,,,
21.7999,2269.6725,,,
21.8219,2246.7521,,,
21.8439,2202.5483,,,
21.8659,2258.826,,,
21.8879,2267.6175,,,
21.9099,2294.5724,,,
21.9319,2379.9881,,,
21.9539,2285.9222,,,
21.9759,2261.9171,,,
21.9979,2358.0884,,,
22.0199,2306.8893,,,
22.0419,2288.2252,,,
22.0639,2312.3349,,,
22.0859,2348.5722,,,
22.1079,2320.4621,,,
22.1299,2316.0769,,,
22.1519,2377.6921,,,
22.1739,2316.8573,,,
22.1959,2321.2923,,,
22.2179,2427.1013,,,
22.2399,2417.0634,,,
22.2619,2419.2183,,,
22.2839,2442.4814,,,
22.3059,2505.5577,,,
22.3279,2536.3937,,,
22.3499,2473.2635,,,
22.3719,2472.4032,,,
22.3939,2538.7436,,,
22.4159,2596.4424,,,
22.4379,2610.657,,,
22.4599,2658.4129,,,
22.4819,2654.0021,,,
22.5039,2698.2984,,,
22.5259,2752.9176,,,
22.5479,2847.3202,,,
22.5699,2877.0619,,,
22.5919,2884.7921,,,
22.6139,2956.7622,,,
22.6359,3069.8783,,,
22.6579,3155.652,,,
22.6799,3218.829,,,
22.7019,3273.6638,,,
22.7239,3344.2686,,,
22.7459,3436.3246,,,
22.7679,3591.1857,,,
22.7899,3696.7346,,,
22.8119,3821.136,,,
22.8339,4104.5541,,,
22.8559,4188.9321,,,
22.8779,4193.0709,,,
22.8999,4374.5505,,,
22.9219,4561.4486,,,
22.9439,4764.9173,,,
22.9659,4957.0504,,,
22.9879,5120.8941,,,
23.0099,5270.6453,,,
23.0319,5529.1189,,,
23.0539,5698.4043,,,
23.0759,5840.9919,,,
23.0979,5878.5408,,,
23.1199,5946.7184,,,
23.1419,5987.4838,,,
23.1639,5837.2573,,,
23.1859,5848.7169,,,
23.2079,5632.6608,,,
23.2299,5449.4963,,,
23.2519,5525.2893,,,
23.2739,5466.0304,,,
23.2959,5194.47,,,
23.3179,5206.2361,,,
23.3399,5068.2077,,,
23.3619,5007.231,,,
23.3839,5041.1018,,,
23.4059,5038.1819,,,
23.4279,4939.433,,,
23.4499,4980.4809,,,
23.4719,4971.0089,,,
23.4939,4988.1051,,,
23.5159,4912.8816,,,
23.5379,4674.6263,,,
23.5599,4668.9229,,,
23.5819,4738.3007,,,
23.6039,4652.297,,,
23.6259,4662.5763,,,
23.6479,4731.7035,,,
23.6699,4733.1112,,,
23.6919,4760.6936,,,
23.7139,4723.9499,,,
23.7359,4710.9098,,,
23.7579,4604.3658,,,
23.7799,4609.0574,,,
23.8019,4548.1092,,,
23.8239,4546.0997,,,
23.8459,4509.4129,,,
23.8679,4475.4479,,,
23.8899,4502.9973,,,
23.9119,4579.2255,,,
23.9339,4448.3813,,,
23.9559,4345.4985,,,
23.9779,4377.841,,,
23.9999,4462.633,,,
24.0219,4394.777,,,
24.0439,4496.6462,,,
24.0659,4548.053,,,
24.0879,4542.6732,,,
24.1099,4680.9532,,,
24.1319,4896.2604,,,
24.1539,4989.3863,,,
24.1759,5188.7356,,,
24.1979,5888.6296,,,
24.2199,6865.2508,,,
24.2419,8149.1262,,,
24.2639,9079.0134,,,
24.2859,8846.493,,,
24.3079,7731.5451,,,
24.3299,6602.1479,,,
24.3519,5640.4714,,,
24.3739,4888.6363,,,
24.3959,4613.6656,,,
24.4179,4581.2526,,,
24.4399,4565.8717,,,
24.4619,4521.8376,,,
24.4839,4452.4424,,,
24.5059,4371.7609,,,
24.5279,4330,,,
24.5499,4123.2551,,,
24.5719,3977.1593,,,
24.5939,4055.6905,,,
24.6159,4120.0718,,,
24.6379,4102.5752,,,
24.6599,4081.0295,,,
24.6819,4022.8799,,,
24.7039,3987.3569,,,
24.7259,3977.3913,,,
24.7479,4011.3821,,,
24.7699,3934.5662,,,
24.7919,3902.9518,,,
24.8139,3970.772,,,
24.8359,3832.1044,,,
24.8579,3880.4034,,,
24.8799,3727.9622,,,
24.9019,3744.5518,,,
24.9239,3777.2341,,,
24.9459,3840.3276,,,
24.9679,3771.8804,,,
24.9899,3814.5517,,,
25.0119,3729.4438,,,
25.0339,3762.0237,,,
25.0559,3716.7585,,,
25.0779,3681.2723,,,
25.0999,3664.3495,,,
25.1219,3674.0679,,,
25.1439,3656.3077,,,
25.1659,3648.3717,,,
25.1879,3636.4897,,,
25.2099,3499.0204,,,
25.2319,3550.0915,,,
25.2539,3468.3263,,,
25.2759,3451.3009,,,
25.2979,3489.2096,,,
25.3199,3592.5176,,,
25.3419,3551.3973,,,
25.3639,3598.0309,,,
25.3859,3535.7228,,,
25.4079,3572.5747,,,
25.4299,3575.8849,,,
25.4519,3544.293,,,
25.4739,3532.3796,,,
25.4959,3558.1388,,,
25.5179,3618.8909,,,
25.5399,3661.8702,,,
25.5619,3693.0179,,,
25.5839,3843.913,,,
25.6059,4041.7747,,,
25.6279,3977.385,,,
25.6499,3948.2712,,,
25.6719,3850.852,,,
25.6939,3812.8936,,,
25.7159,3647.5384,,,
25.7379,3474.6676,,,
25.7599,3434.2033,,,
25.7819,3343.9479,,,
25.8039,3388.1546,,,
25.8259,3428.5426,,,
25.8479,3361.9027,,,
25.8699,3345.7619,,,
25.8919,3306.5104,,,
25.9139,3329.528,,,
25.9359,3335.8378,,,
25.9579,3347.2035,,,
25.9799,3328.8201,,,
26.0019,3333.1022,,,
26.0239,3330.705,,,
26.0459,3393.5194,,,
26.0679,3367.3073,,,
26.0899,3279.4397,,,
26.1119,3333.9838,,,
26.1339,3302.5692,,,
26.1559,3249.5,,,
26.1779,3231.7787,,,
26.1999,3223.5246,,,
26.2219,3247.6225,,,
26.2439,3227.3617,,,
26.2659,3247.8999,,,
26.2879,3250.9851,,,
26.3099,3190.9399,,,
26.3319,3205.4981,,,
26.3539,3295.9471,,,
26.3759,3332.3938,,,
26.3979,3292.7934,,,
26.4199,3268.7625,,,
26.4419,3147.5788,,,
26.4639,3122.2921,,,
26.4859,3161.8998,,,
26.5079,3094.6709,,,
26.5299,3129.0592,,,
26.5519,3138.2477,,,
26.5739,3222.6915,,,
26.5959,3195.5883,,,
26.6179,3178.0325,,,
26.6399,3199.8009,,,
26.6619,3201.3038,,,
26.6839,3215.1048,,,
26.7059,3359.4664,,,
26.7279,3331.5323,,,
26.7499,3269.7521,,,
26.7719,3258.3117,,,
26.7939,3326.5154,,,
26.8159,3291.9571,,,
26.8379,3240.9488,,,
26.8599,3151.0283,,,
26.8819,3176.3187,,,
26.9039,3309.4236,,,
26.9259,3121.0094,,,
26.9479,3253.9693,,,
26.9699,3256.3166,,,
26.9919,3138.0184,,,
27.0139,3245.6462,,,
27.0359,3198.4178,,,
27.0579,3037.2991,,,
27.0799,3113.357,,,
27.1019,3133.5171,,,
27.1239,3078.4295,,,
27.1459,2972.3275,,,
27.1679,2997.177,,,
27.1899,3012.4464,,,
27.2119,3007.6758,,,
27.2339,3133.6261,,,
27.2559,3038.1738,,,
27.2779,3145.2007,,,
27.2999,3175.2954,,,
27.3219,3152.7199,,,
27.3439,3219.7433,,,
27.3659,3200.6401,,,
27.3879,3222.2267,,,
27.4099,3260.5959,,,
27.4319,3267.9859,,,
27.4539,3272.7666,,,
27.4759,3121.1504,,,
27.4979,3133.2293,,,
27.5199,3151.4038,,,
27.5419,3001.0529,,,
27.5639,2950.739,,,
27.5859,3004.9737,,,
27.6079,3032.8492,,,
27.6299,2956.9963,,,
27.6519,3078.214,,,
27.6739,3149.9234,,,
27.6959,3194.7395,,,
27.7179,3184.0253,,,
27.7399,3120.3939,,,
27.7619,3140.178,,,
27.7839,3156.0576,,,
27.8059,3179.593,,,
27.8279,3175.2399,,,
27.8499,3114.93,,,
27.8719,3056.6607,,,
27.8939,3074.3757,,,
27.9159,3172.1433,,,
27.9379,3174.628,,,
27.9599,3071.5122,,,
27.9819,3122.1449,,,
28.0039,3190.6106,,,
28.0259,3174.6499,,,
28.0479,3171.5703,,,
28.0699,3196.4956,,,
28.0919,3263.1821,,,
28.1139,3310.6903,,,
28.1359,3336.7921,,,
28.1579,3307.5613,,,
28.1799,3360.8474,,,
28.2019,3439.7966,,,
28.2239,3565.4792,,,
28.2459,3591.9557,,,
28.2679,3461.4097,,,
28.2899,3418.768,,,
28.3119,3467.6806,,,
28.3339,3407.867,,,
28.3559,3350.023,,,
28.3779,3311.8269,,,
28.3999,3277.1283,,,
28.4219,3224.5731,,,
28.4439,3259.2528,,,
28.4659,3292.7641,,,
28.4879,3335.7341,,,
28.5099,3295.2762,,,
28.5319,3267.4513,,,
28.5539,3230.4109,,,
28.5759,3367.139,,,
28.5979,3507.8174,,,
28.6199,3419.9314,,,
28.6419,3575.6671,,,
28.6639,3582.5811,,,
28.6859,3611.1446,,,
28.7079,3766.7511,,,
28.7299,3746.1681,,,
28.7519,3834.2829,,,
28.7739,4102.7626,,,
28.7959,4151.0222,,,
28.8179,4248.7475,,,
28.8399,4412.9202,,,
28.8619,4657.2864,,,
28.8839,4767.867,,,
28.9059,4892.9504,,,
28.9279,5134.7214,,,
28.9499,5234.5597,,,
28.9719,5345.4325,,,
28.9939,5261.569,,,
29.0159,5095.3992,,,
29.0379,4875.6566,,,
29.0599,4777.879,,,
29.0819,4697.7625,,,
29.1039,4454.1218,,,
29.1259,4366.9466,,,
29.1479,4198.9911,,,
29.1699,4000.4484,,,
29.1919,3977.9909,,,
29.2139,3914.7613,,,
29.2359,3939.8634,,,
29.2579,3810.5578,,,
29.2799,3898.9202,,,
29.3019,3844.654,,,
29.3239,3865.6459,,,
29.3459,3835.4721,,,
29.3679,3862.3238,,,
29.3899,3819.3511,,,
29.4119,3877.865,,,
29.4339,3899.2888,,,
29.4559,3814.0591,,,
29.4779,3833.6607,,,
29.4999,3780.9157,,,
29.5219,3696.3451,,,
29.5439,3686.4637,,,
29.5659,3746.2087,,,
29.5879,3749.7976,,,
29.6099,3652.5624,,,
29.6319,3693.9668,,,
29.6539,3784.7081,,,
29.6759,3739.0842,,,
29.6979,3677.9146,,,
29.7199,3679.6724,,,
29.7419,3604.7521,,,
29.7639,3598.3969,,,
29.7859,3526.7312,,,
29.8079,3415.3067,,,
29.8299,3354.0018,,,
29.8519,3296.2742,,,
29.8739,3265.3018,,,
29.8959,3269.5581,,,
29.9179,3234.4689,,,
29.9399,3144.2078,,,
29.9619,3066.5397,,,
29.9839,3113.8896,,,
30.0059,3060.2652,,,
30.0279,3018.622,,,
30.0499,2998.0058,,,
30.0719,2974.995,,,
30.0939,3001.5045,,,
30.1159,3002.8893,,,
30.1379,2958.1425,,,
30.1599,2928.2605,,,
30.1819,2990.4338,,,
30.2039,3008.4307,,,
30.2259,3052.657,,,
30.2479,2948.8655,,,
30.2699,2891.4503,,,
30.2919,2814.4674,,,
30.3139,2837.5045,,,
30.3359,3003.8721,,,
30.3579,2957.0214,,,
30.3799,2966.2169,,,
30.4019,2910.6921,,,
30.4239,2877.2349,,,
30.4459,3001.3395,,,
30.4679,3073.27,,,
30.4899,3020.0343,,,
30.5119,3052.3452,,,
30.5339,3107.0257,,,
30.5559,3032.3848,,,
30.5779,3128.9619,,,
30.5999,3187.0365,,,
30.6219,3227.8034,,,
30.6439,3192.9631,,,
30.6659,3191.2845,,,
30.6879,3354.8722,,,
30.7099,3359.319,,,
30.7319,3539.1696,,,
30.7539,3556.5924,,,
30.7759,3758.2995,,,
30.7979,3815.4073,,,
30.8199,3925.6461,,,
30.8419,4186.4074,,,
30.8639,4385.4956,,,
30.8859,4892.9533,,,
30.9079,5611.9754,,,
30.9299,6597.0514,,,
30.9519,8094.4047,,,
30.9739,9928.6079,,,
30.9959,12778.4215,,,
31.0179,15473.2106,,,
31.0399,15698.6144,,,
31.0619,13311.3469,,,
31.0839,10869.5944,,,
31.1059,9151.3403,,,
31.1279,6947.5505,,,
31.1499,5044.3183,,,
31.1719,4189.8205,,,
31.1939,3789.1902,,,
31.2159,3587.787,,,
31.2379,3506.0765,,,
31.2599,3445.9759,,,
31.2819,3399.153,,,
31.3039,3275.4335,,,
31.3259,3231.7856,,,
31.3479,3197.9586,,,
31.3699,3121.1148,,,
31.3919,3091.4933,,,
31.4139,3089.3066,,,
31.4359,3045.9971,,,
31.4579,3044.9842,,,
31.4799,3090.779,,,
31.5019,3116.1149,,,
31.5239,3094.9568,,,
31.5459,3115.9774,,,
31.5679,3024.9406,,,
31.5899,2964.4357,,,
31.6119,2927.6335,,,
31.6339,2779.9937,,,
31.6559,2720.0468,,,
31.6779,2742.6057,,,
31.6999,2759.3496,,,
31.7219,2713.9615,,,
31.7439,2686.8412,,,
31.7659,2748.7141,,,
31.7879,2799.4558,,,
31.8099,2803.7296,,,
31.8319,2868.1094,,,
31.8539,2985.7397,,,
31.8759,3140.4822,,,
31.8979,3164.0973,,,
31.9199,3278.3249,,,
31.9419,3366.5576,,,
31.9639,3475.5947,,,
31.9859,3511.7857,,,
32.0079,3669.9621,,,
32.0299,3523.1351,,,
32.0519,3439.6218,,,
32.0739,3255.4213,,,
32.0959,3167.1592,,,
32.1179,2966.7291,,,
32.1399,2847.0558,,,
32.1619,2826.8672,,,
32.1839,2694.9697,,,
32.2059,2746.2834,,,
32.2279,2836.3099,,,
32.2499,2916.5607,,,
32.2719,2963.4273,,,
32.2939,3074.7879,,,
32.3159,3124.4259,,,
32.3379,3084.0795,,,
32.3599,3094.559,,,
32.3819,3132.1781,,,
32.4039,3283.5805,,,
32.4259,3334.0502,,,
32.4479,3354.5517,,,
32.4699,3585.0738,,,
32.4919,3633.8325,,,
32.5139,3894.9479,,,
32.5359,3894.9661,,,
32.5579,3896.4981,,,
32.5799,3723.7526,,,
32.6019,3469.9709,,,
32.6239,3218.4435,,,
32.6459,3040.1275,,,
32.6679,2874.5539,,,
32.6899,2617.2036,,,
32.7119,2628.5566,,,
32.7339,2667.5774,,,
32.7559,2748.8674,,,
32.7779,2779.6066,,,
32.7999,2739.5125,,,
32.8219,2654.2273,,,
32.8439,2690.0677,,,
32.8659,2647.054,,,
32.8879,2596.5087,,,
32.9099,2519.6645,,,
32.9319,2486.7049,,,
32.9539,2555.0145,,,
32.9759,2503.4058,,,
32.9979,2496.4942,,,
33.0199,2395.3924,,,
33.0419,2376.8768,,,
33.0639,2329.0175,,,
33.0859,2380.876,,,
33.1079,2350.4724,,,
33.1299,2339.6037,,,
33.1519,2348.3968,,,
33.1739,2329.1739,,,
33.1959,2276.6366,,,
33.2179,2277.6903,,,
33.2399,2265.8253,,,
33.2619,2306.0318,,,
33.2839,2336.7697,,,
33.3059,2268.1838,,,
33.3279,2279.3856,,,
33.3499,2304.9233,,,
33.3719,2321.0699,,,
33.3939,2244.561,,,
33.4159,2171.4484,,,
33.4379,2139.1945,,,
33.4599,2177.0308,,,
33.4819,2206.8052,,,
33.5039,2219.8138,,,
33.5259,2262.5527,,,
33.5479,2212.8714,,,
33.5699,2148.9586,,,
33.5919,2110.788,,,
33.6139,2089.3333,,,
33.6359,2135.922,,,
33.6579,2160.6913,,,
33.6799,2175.0708,,,
33.7019,2200.3275,,,
33.7239,2154.1188,,,
33.7459,2111.0471,,,
33.7679,2098.4838,,,
33.7899,2074.0501,,,
33.8119,2145.5061,,,
33.8339,2193.2665,,,
33.8559,2151.0859,,,
33.8779,2180.5223,,,
33.8999,2128.016,,,
33.9219,2138.4848,,,
33.9439,2161.7228,,,
33.9659,2185.7198,,,
33.9879,2129.458,,,
34.0099,2050.8553,,,
34.0319,2145.5229,,,
34.0539,2134.1877,,,
34.0759,2155.1195,,,
34.0979,2172.9302,,,
34.1199,2019.2538,,,
34.1419,2062.9293,,,
34.1639,2107.8536,,,
34.1859,2157.3256,,,
34.2079,2111.0692,,,
34.2299,2113.5687,,,
34.2519,2254.9201,,,
34.2739,2168.77,,,
34.2959,2215.9985,,,
34.3179,2195.94,,,
34.3399,2202.0828,,,
34.3619,2288.6026,,,
34.3839,2233.2515,,,
34.4059,2166.6756,,,
34.4279,2201.0991,,,
34.4499,2110.4532,,,
34.4719,2088.009,,,
34.4939,2126.1504,,,
34.5159,2128.7426,,,
34.5379,2219.3894,,,
34.5599,2230.0215,,,
34.5819,2190.9252,,,
34.6039,2199.7023,,,
34.6259,2246.7009,,,
34.6479,2212.3531,,,
34.6699,2199.6634,,,
34.6919,2163.8201,,,
34.7139,2315.0943,,,
34.7359,2287.966,,,
34.7579,2255.942,,,
34.7799,2255.0438,,,
34.8019,2252.1415,,,
34.8239,2230.623,,,
34.8459,2220.1178,,,
34.8679,2205.8675,,,
34.8899,2278.7591,,,
34.9119,2260.4079,,,
34.9339,2207.7727,,,
34.9559,2175.8328,,,
34.9779,2141.4167,,,
34.9999,2180.8781,,,
35.0219,2329.5302,,,
35.0439,2421.6276,,,
35.0659,2582.4785,,,
35.0879,2731.3905,,,
35.1099,2760.9902,,,
35.1319,2757.9705,,,
35.1539,2664.2405,,,
35.1759,2583.1573,,,
35.1979,2480.7429,,,
35.2199,2373.4434,,,
35.2419,2298.3793,,,
35.2639,2183.0262,,,
35.2859,2112.7747,,,
35.3079,2138.011,,,
35.3299,2094.4599,,,
35.3519,1997.248,,,
35.3739,2027.3955,,,
35.3959,2062.9867,,,
35.4179,2116.6138,,,
35.4399,2090.488,,,
35.4619,2132.7171,,,
35.4839,2158.8658,,,
35.5059,2192.0139,,,
35.5279,2235.1756,,,
35.5499,2178.6546,,,
35.5719,2148.3943,,,
35.5939,2062.5307,,,
35.6159,2038.7852,,,
35.6379,2062.9234,,,
35.6599,2008.2697,,,
35.6819,1923.3056,,,
35.7039,1943.8757,,,
35.7259,1933.2212,,,
35.7479,1920.5521,,,
35.7699,1968.658,,,
35.7919,1976.8835,,,
35.8139,1936.6901,,,
35.8359,1953.7936,,,
35.8579,2065.5224,,,
35.8799,2003.1861,,,
35.9019,2069.8153,,,
35.9239,2083.5723,,,
35.9459,2081.0914,,,
35.9679,1997.546,,,
35.9899,1967.171,,,
36.0119,2086.0537,,,
36.0339,1940.9806,,,
36.0559,2041.0351,,,
36.0779,1916.7404,,,
36.0999,1908.6666,,,
36.1219,1869.2714,,,
36.1439,1873,,,
36.1659,1874.5713,,,
36.1879,1891.2567,,,
36.2099,1910.0739,,,
36.2319,1944.1047,,,
36.2539,1775.602,,,
36.2759,1845.8445,,,
36.2979,1822.6354,,,
36.3199,1890.456,,,
36.3419,1956.6185,,,
36.3639,1964.7464,,,
36.3859,2014.4131,,,
36.4079,2042.342,,,
36.4299,1981.6046,,,
36.4519,1972.0668,,,
36.4739,2052.8139,,,
36.4959,2000.2062,,,
36.5179,2017.1531,,,
36.5399,1926.2876,,,
36.5619,1927.5281,,,
36.5839,1940.7404,,,
36.6059,1907.6163,,,
36.6279,1869.3207,,,
36.6499,1897.2655,,,
36.6719,1893.997,,,
36.6939,1861.9537,,,
36.7159,1823.4085,,,
36.7379,1840.6079,,,
36.7599,1916.306,,,
36.7819,1929.7344,,,
36.8039,1902.7955,,,
36.8259,1928.5193,,,
36.8479,2007.133,,,
36.8699,2106.2598,,,
36.8919,2229.6897,,,
36.9139,2427.3959,,,
36.9359,2676.3581,,,
36.9579,2906.9819,,,
36.9799,2966.0736,,,
37.0019,2776.8665,,,
37.0239,2581.9579,,,
37.0459,2440.4686,,,
37.0679,2344.3927,,,
37.0899,2181.7919,,,
37.1119,1998.4789,,,
37.1339,1882.4757,,,
37.1559,1874.4667,,,
37.1779,1888.3422,,,
37.1999,1830.3705,,,
37.2219,1840.8969,,,
37.2439,1820.7919,,,
37.2659,1798.3441,,,
37.2879,1805.3506,,,
37.3099,1820.7051,,,
37.3319,1832.4386,,,
37.3539,1815.3401,,,
37.3759,1790.5575,,,
37.3979,1874.0033,,,
37.4199,1788.77,,,
37.4419,1865.4959,,,
37.4639,1841.9438,,,
37.4859,1772.9074,,,
37.5079,1823.3217,,,
37.5299,1832.4366,,,
37.5519,1781.7275,,,
37.5739,1733.5633,,,
37.5959,1753.8491,,,
37.6179,1694.6488,,,
37.6399,1702.6549,,,
37.6619,1769.9038,,,
37.6839,1672.484,,,
37.7059,1796.5343,,,
37.7279,1831.9529,,,
37.7499,1783.1532,,,
37.7719,1795.8555,,,
37.7939,1760.0453,,,
37.8159,1782.8146,,,
37.8379,1771.6196,,,
37.8599,1829.9901,,,
37.8819,1803.9773,,,
37.9039,1789.4397,,,
37.9259,1846.8984,,,
37.9479,1752.3123,,,
37.9699,1799.6077,,,
37.9919,1816.3573,,,
38.0139,1766.9971,,,
38.0359,1778.2609,,,
38.0579,1716.5516,,,
38.0799,1707.8534,,,
38.1019,1669.7344,,,
38.1239,1657.1428,,,
38.1459,1727.8288,,,
38.1679,1698.5559,,,
38.1899,1666.5085,,,
38.2119,1696.7471,,,
38.2339,1638.4337,,,
38.2559,1669.8428,,,
38.2779,1718.1517,,,
38.2999,1733.8845,,,
38.3219,1641.7564,,,
38.3439,1697.0723,,,
38.3659,1682.7816,,,
38.3879,1662.3412,,,
38.4099,1678.884,,,
38.4319,1693.9425,,,
38.4539,1732.1389,,,
38.4759,1766.9994,,,
38.4979,1702.0292,,,
38.5199,1640.0712,,,
38.5419,1667.7879,,,
38.5639,1700.553,,,
38.5859,1687.889,,,
38.6079,1668.8311,,,
38.6299,1638.2567,,,
38.6519,1698.1694,,,
38.6739,1728.7619,,,
38.6959,1701.9292,,,
38.7179,1699.6274,,,
38.7399,1716.7926,,,
38.7619,1689.9201,,,
38.7839,1679.2027,,,
38.8059,1673.171,,,
38.8279,1667.7523,,,
38.8499,1735.6021,,,
38.8719,1779.0212,,,
38.8939,1777.9174,,,
38.9159,1711.2322,,,
38.9379,1662.7423,,,
38.9599,1674.6417,,,
38.9819,1701.9735,,,
39.0039,1652.016,,,
39.0259,1646.0886,,,
39.0479,1601.9029,,,
39.0699,1634.7583,,,
39.0919,1633.0043,,,
39.1139,1732.6966,,,
39.1359,1655.9863,,,
39.1579,1630.9883,,,
39.1799,1600.0662,,,
39.2019,1642.0474,,,
39.2239,1656,,,
39.2459,1600.7038,,,
39.2679,1599.5566,,,
39.2899,1644.7258,,,
39.3119,1642.7994,,,
39.3339,1690.1536,,,
39.3559,1676.1341,,,
39.3779,1668.5654,,,
39.3999,1609.5509,,,
39.4219,1698.7083,,,
39.4439,1685.8288,,,
39.4659,1627.8346,,,
39.4879,1716.9413,,,
39.5099,1684.5338,,,
39.5319,1698.5674,,,
39.5539,1798.5106,,,
39.5759,1734.162,,,
39.5979,1715.3934,,,
39.6199,1754.4026,,,
39.6419,1726.0038,,,
39.6639,1673.3163,,,
39.6859,1741.118,,,
39.7079,1744.4258,,,
39.7299,1762.7493,,,
39.7519,1766.2318,,,
39.7739,1819.5918,,,
39.7959,1781.0228,,,
39.8179,1828.9824,,,
39.8399,1854.5649,,,
39.8619,1852.3147,,,
39.8839,1876.8986,,,
39.9059,1971.7185,,,
39.9279,1897.6898,,,
39.9499,1938.3986,,,
39.9719,2028.1238,,,
39.9939,2004.8526,,,
40.0159,2016.8628,,,
40.0379,1991.2172,,,
40.0599,1970.6128,,,
40.0819,2036.4574,,,
40.1039,2083.4419,,,
40.1259,2089.2037,,,
40.1479,2119.9984,,,
40.1699,2116.3758,,,
40.1919,2165.6583,,,
40.2139,2133.1413,,,
40.2359,2135.4356,,,
40.2579,2265.364,,,
40.2799,2292.1474,,,
40.3019,2275.8535,,,
40.3239,2284.7537,,,
40.3459,2294.5488,,,
40.3679,2360.6026,,,
40.3899,2434.9509,,,
40.4119,2451.1814,,,
40.4339,2459.3383,,,
40.4559,2472.2946,,,
40.4779,2476.9852,,,
40.4999,2521.8356,,,
40.5219,2557.9527,,,
40.5439,2600.7584,,,
40.5659,2612.4108,,,
40.5879,2682.9504,,,
40.6099,2799.2657,,,
40.6319,2848.388,,,
40.6539,2875.1957,,,
40.6759,2955.6154,,,
40.6979,3056.5706,,,
40.7199,3128.8375,,,
40.7419,3189.9382,,,
40.7639,3281.0937,,,
40.7859,3343.9421,,,
40.8079,3356.3142,,,
40.8299,3384.6235,,,
40.8519,3319.5636,,,
40.8739,3308.2361,,,
40.8959,3290.2747,,,
40.9179,3262.3175,,,
40.9399,3171.6855,,,
40.9619,3060.865,,,
40.9839,3017.1799,,,
41.0059,3000.0531,,,
41.0279,3006.7051,,,
41.0499,2917.0429,,,
41.0719,2835.3331,,,
41.0939,2733.3635,,,
41.1159,2729.0109,,,
41.1379,2764.068,,,
41.1599,2696.6349,,,
41.1819,2764.8469,,,
41.2039,2640.6588,,,
41.2259,2620.5644,,,
41.2479,2729.0048,,,
41.2699,2638.8286,,,
41.2919,2709.4998,,,
41.3139,2648.108,,,
41.3359,2621.4793,,,
41.3579,2700.4496,,,
41.3799,2669.2164,,,
41.4019,2707.8317,,,
41.4239,2645.3695,,,
41.4459,2715.6574,,,
41.4679,2574.8925,,,
41.4899,2620.1856,,,
41.5119,2559.4118,,,
41.5339,2624.5808,,,
41.5559,2540.3366,,,
41.5779,2612.1817,,,
41.5999,2547.9514,,,
41.6219,2560.5475,,,
41.6439,2509.9542,,,
41.6659,2490.7553,,,
41.6879,2545.1167,,,
41.7099,2587.0658,,,
41.7319,2571.0517,,,
41.7539,2589.9282,,,
41.7759,2608.665,,,
41.7979,2679.5486,,,
41.8199,2666.2857,,,
41.8419,2696.9598,,,
41.8639,2702.9688,,,
41.8859,2645.5093,,,
41.9079,2683.4745,,,
41.9299,2795.6134,,,
41.9519,2761.7744,,,
41.9739,2777.9764,,,
41.9959,2753.7255,,,
42.0179,2726.8556,,,
42.0399,2747.8707,,,
42.0619,2729.3597,,,
42.0839,2645.5581,,,
42.1059,2583.7415,,,
42.1279,2637.5578,,,
42.1499,2617.1755,,,
42.1719,2510.5323,,,
42.1939,2477.9557,,,
42.2159,2432.872,,,
42.2379,2369.3686,,,
42.2599,2367.835,,,
42.2819,2364.4206,,,
42.3039,2325.6538,,,
42.3259,2373.5284,,,
42.3479,2424.1849,,,
42.3699,2391.931,,,
42.3919,2353.0132,,,
42.4139,2349.8309,,,
42.4359,2365.3123,,,
42.4579,2322.5632,,,
42.4799,2332.7775,,,
42.5019,2334.9743,,,
42.5239,2354.5164,,,
42.5459,2378.2547,,,
42.5679,2389.6987,,,
42.5899,2569.1247,,,
42.6119,2706.4968,,,
42.6339,2739.472,,,
42.6559,3007.3316,,,
42.6779,3219.1263,,,
42.6999,3194.3699,,,
42.7219,3071.563,,,
42.7439,2870.927,,,
42.7659,2828.5772,,,
42.7879,2670.2162,,,
42.8099,2477.5904,,,
42.8319,2423.0343,,,
42.8539,2382.5279,,,
42.8759,2275.7381,,,
42.8979,2308.2096,,,
42.9199,2350.7656,,,
42.9419,2311.2181,,,
42.9639,2255.1394,,,
42.9859,2238.1681,,,
43.0079,2287.3222,,,
43.0299,2228.9477,,,
43.0519,2192.0559,,,
43.0739,2298.5077,,,
43.0959,2213.3733,,,
43.1179,2262.7258,,,
43.1399,2249.1696,,,
43.1619,2345.8816,,,
43.1839,2226.9162,,,
43.2059,2294.7699,,,
43.2279,2287.2115,,,
43.2499,2316.5456,,,
43.2719,2283.0056,,,
43.2939,2199.5765,,,
43.3159,2282.0443,,,
43.3379,2290.6164,,,
43.3599,2265.6518,,,
43.3819,2243.3364,,,
43.4039,2271.6848,,,
43.4259,2239.331,,,
43.4479,2138.9646,,,
43.4699,2145.0384,,,
43.4919,2157.9702,,,
43.5139,2199.1269,,,
43.5359,2204.896,,,
43.5579,2156.7781,,,
43.5799,2230.1503,,,
43.6019,2203.4298,,,
43.6239,2206.786,,,
43.6459,2164.3864,,,
43.6679,2177.8149,,,
43.6899,2234.7128,,,
43.7119,2204.2108,,,
43.7339,2218.787,,,
43.7559,2300.0015,,,
43.7779,2273.1502,,,
43.7999,2231.3614,,,
43.8219,2242.8486,,,
43.8439,2253.6402,,,
43.8659,2261.6627,,,
43.8879,2312.736,,,
43.9099,2341.7075,,,
43.9319,2309.842,,,
43.9539,2372.5477,,,
43.9759,2389.3054,,,
43.9979,2410.5527,,,
44.0199,2454.0253,,,
44.0419,2495.4631,,,
44.0639,2448.0129,,,
44.0859,2415.5507,,,
44.1079,2454.8276,,,
44.1299,2460.8298,,,
44.1519,2441.351,,,
44.1739,2492.0711,,,
44.1959,2442.4134,,,
44.2179,2375.591,,,
44.2399,2430.8956,,,
44.2619,2344.5077,,,
44.2839,2302.5307,,,
44.3059,2294.8347,,,
44.3279,2280.3048,,,
44.3499,2311.5764,,,
44.3719,2298.5662,,,
44.3939,2278.1071,,,
44.4159,2340.9482,,,
44.4379,2374.7109,,,
44.4599,2258.6361,,,
44.4819,2268.6453,,,
44.5039,2253.4659,,,
44.5259,2235.8957,,,
44.5479,2285.9466,,,
44.5699,2301.7876,,,
44.5919,2350.7942,,,
44.6139,2396.3,,,
44.6359,2422.1387,,,
44.6579,2407.5909,,,
44.6799,2418.4342,,,
44.7019,2427.8909,,,
44.7239,2479.6718,,,
44.7459,2518.008,,,
44.7679,2587.571,,,
44.7899,2557.6685,,,
44.8119,2649.9728,,,
44.8339,2621.5308,,,
44.8559,2712.7924,,,
44.8779,2659.459,,,
44.8999,2726.0106,,,
44.9219,2619.7302,,,
44.9439,2694.7353,,,
44.9659,2649.4249,,,
44.9879,2696.704,,,
45.0099,2681.6626,,,
45.0319,2640.8051,,,
45.0539,2591.9831,,,
45.0759,2542.5782,,,
45.0979,2532.5396,,,
45.1199,2477.1168,,,
45.1419,2419.4995,,,
45.1639,2399.3538,,,
45.1859,2345.1082,,,
45.2079,2351.2211,,,
45.2299,2293.5868,,,
45.2519,2234.1923,,,
45.2739,2236.8583,,,
45.2959,2203.0915,,,
45.3179,2197.9151,,,
45.3399,2149.7801,,,
45.3619,2190.495,,,
45.3839,2067.1814,,,
45.4059,2085.9697,,,
45.4279,2139.4206,,,
45.4499,2174.3617,,,
45.4719,2153.5337,,,
45.4939,2178.2121,,,
45.5159,2111.4581,,,
45.5379,2071.4611,,,
45.5599,2022.6546,,,
45.5819,2021.3044,,,
45.6039,2112.8312,,,
45.6259,2086.0207,,,
45.6479,2112.4432,,,
45.6699,2135.5437,,,
45.6919,2115.0265,,,
45.7139,2070.4461,,,
45.7359,2048.0985,,,
45.7579,2113.3365,,,
45.7799,2137.4095,,,
45.8019,2131.6146,,,
45.8239,2130.7241,,,
45.8459,2128.5074,,,
45.8679,2136.5128,,,
45.8899,2121.2477,,,
45.9119,2132.2563,,,
45.9339,2134.2123,,,
45.9559,2105.6371,,,
45.9779,2106.3363,,,
45.9999,2136.2882,,,
46.0219,2121.46,,,
46.0439,2131.5557,,,
46.0659,2178.4298,,,
46.0879,2273.1907,,,
46.1099,2304.3923,,,
46.1319,2332.6551,,,
46.1539,2435.0712,,,
46.1759,2386.9681,,,
46.1979,2235.1528,,,
46.2199,2124.569,,,
46.2419,2100.4435,,,
46.2639,2072.373,,,
46.2859,2009.0116,,,
46.3079,1985.6897,,,
46.3299,1891.4922,,,
46.3519,1845.9866,,,
46.3739,1820.3175,,,
46.3959,1818.2311,,,
46.4179,1805.879,,,
46.4399,1788.85,,,
46.4619,1766.5732,,,
46.4839,1780.1387,,,
46.5059,1763.877,,,
46.5279,1716.9241,,,
46.5499,1711.8938,,,
46.5719,1731.0281,,,
46.5939,1695.346,,,
46.6159,1750.633,,,
46.6379,1744.6273,,,
46.6599,1722.9842,,,
46.6819,1786.8262,,,
46.7039,1789,,,
46.7259,1791.9764,,,
46.7479,1720.1151,,,
46.7699,1747.254,,,
46.7919,1818.128,,,
46.8139,1721.3392,,,
46.8359,1706.5359,,,
46.8579,1722.9178,,,
46.8799,1815.3714,,,
46.9019,1755.9659,,,
46.9239,1817.4712,,,
46.9459,1752.3189,,,
46.9679,1818.2698,,,
46.9899,1784.8645,,,
47.0119,1827.3807,,,
47.0339,1880.4065,,,
47.0559,1962.2929,,,
47.0779,1963.2838,,,
47.0999,2127.94,,,
47.1219,2212.863,,,
47.1439,2155.9294,,,
47.1659,2152.8785,,,
47.1879,2001.4676,,,
47.2099,1919.4899,,,
47.2319,1983.0627,,,
47.2539,1987.7634,,,
47.2759,1838.9569,,,
47.2979,1766.6361,,,
47.3199,1763.1559,,,
47.3419,1763.5574,,,
47.3639,1730.9827,,,
47.3859,1708.4218,,,
47.4079,1684.1784,,,
47.4299,1679.1053,,,
47.4519,1705.1706,,,
47.4739,1715.8702,,,
47.4959,1700.5731,,,
47.5179,1641.4039,,,
47.5399,1625.3675,,,
47.5619,1633.2033,,,
47.5839,1659.6356,,,
47.6059,1688.6192,,,
47.6279,1653,,,
47.6499,1694.1773,,,
47.6719,1698.5956,,,
47.6939,1635.0893,,,
47.7159,1614.5428,,,
47.7379,1644.5311,,,
47.7599,1633.7997,,,
47.7819,1641.8517,,,
47.8039,1649.7344,,,
47.8259,1660.6275,,,
47.8479,1695.6643,,,
47.8699,1722.888,,,
47.8919,1713.6238,,,
47.9139,1698.0973,,,
47.9359,1710.3673,,,
47.9579,1678.5347,,,
47.9799,1642.6818,,,
48.0019,1621.6047,,,
48.0239,1592.3288,,,
48.0459,1662.5265,,,
48.0679,1742.4486,,,
48.0899,1688.3527,,,
48.1119,1666.5329,,,
48.1339,1674.7876,,,
48.1559,1667.5073,,,
48.1779,1652.9498,,,
48.1999,1661.4189,,,
48.2219,1692.1496,,,
48.2439,1722.3664,,,
48.2659,1709.0973,,,
48.2879,1663.6247,,,
48.3099,1698.2234,,,
48.3319,1735.1284,,,
48.3539,1681.2928,,,
48.3759,1763.6547,,,
48.3979,1676.5955,,,
48.4199,1663.3687,,,
48.4419,1644.9341,,,
48.4639,1653.6313,,,
48.4859,1630.5899,,,
48.5079,1552.9584,,,
48.5299,1567.0001,,,
48.5519,1585.2295,,,
48.5739,1684.3688,,,
48.5959,1696.013,,,
48.6179,1615.7383,,,
48.6399,1575.9948,,,
48.6619,1633.3862,,,
48.6839,1586.9675,,,
48.7059,1581.3099,,,
48.7279,1619.6014,,,
48.7499,1552.7163,,,
48.7719,1679.1659,,,
48.7939,1707.8904,,,
48.8159,1615.2317,,,
48.8379,1638.0195,,,
48.8599,1597.9279,,,
48.8819,1628.0835,,,
48.9039,1631.4026,,,
48.9259,1702.3006,,,
48.9479,1656.3474,,,
48.9699,1697.2171,,,
48.9919,1653.612,,,
49.0139,1636.9439,,,
49.0359,1612.9959,,,
49.0579,1592.0945,,,
49.0799,1629.6038,,,
49.1019,1631.4236,,,
49.1239,1593.0044,,,
49.1459,1577.9222,,,
49.1679,1565.832,,,
49.1899,1591.5811,,,
49.2119,1574.6625,,,
49.2339,1536.4601,,,
49.2559,1578.4562,,,
49.2779,1610.8069,,,
49.2999,1527.5961,,,
49.3219,1514.7613,,,
49.3439,1577.3768,,,
49.3659,1579.575,,,
49.3879,1535.9335,,,
49.4099,1569.7398,,,
49.4319,1574.6772,,,
49.4539,1573.2333,,,
49.4759,1614.7567,,,
49.4979,1642.7956,,,
49.5199,1669.6372,,,
49.5419,1667.0845,,,
49.5639,1663.3107,,,
49.5859,1643.171,,,
49.6079,1691.8401,,,
49.6299,1844.6201,,,
49.6519,2006.7734,,,
49.6739,2240.3196,,,
49.6959,2509.7203,,,
49.7179,2713.4962,,,
49.7399,2524.2557,,,
49.7619,2188.4963,,,
49.7839,2064.7786,,,
49.8059,2074.6737,,,
49.8279,1995.2537,,,
49.8499,1965.6873,,,
49.8719,1746.5712,,,
49.8939,1662.3313,,,
49.9159,1562.9818,,,
49.9379,1499.6016,,,
49.9599,1529.1472,,,
49.9819,1558.4691,,,
50.0039,1513.5897,,,
50.0259,1542.2824,,,
50.0479,1541.5191,,,
50.0699,1556.3472,,,
50.0919,1522.3479,,,
50.1139,1400.1853,,,
50.1359,1418.1983,,,
50.1579,1602.9988,,,
50.1799,1509.4582,,,
50.2019,1505.6047,,,
50.2239,1467.197,,,
50.2459,1467.8761,,,
50.2679,1409.7402,,,
50.2899,1480.7633,,,
50.3119,1482.9956,,,
50.3339,1480.819,,,
50.3559,1458.4032,,,
50.3779,1477.3185,,,
50.3999,1457.4474,,,
50.4219,1464.3194,,,
50.4439,1424.2982,,,
50.4659,1481.1022,,,
50.4879,1472.5025,,,
50.5099,1475.1058,,,
50.5319,1380.0951,,,
50.5539,1419.0462,,,
50.5759,1430.7214,,,
50.5979,1458.2232,,,
50.6199,1447.2938,,,
50.6419,1435.4134,,,
50.6639,1517.6211,,,
50.6859,1452.5909,,,
50.7079,1465.0932,,,
50.7299,1503.1699,,,
50.7519,1474.0012,,,
50.7739,1487.8107,,,
50.7959,1406.1815,,,
50.8179,1447.427,,,
50.8399,1489.0529,,,
50.8619,1454.0914,,,
50.8839,1442.2305,,,
50.9059,1416.0884,,,
50.9279,1414.1535,,,
50.9499,1423.6636,,,
50.9719,1444.0593,,,
50.9939,1470.6251,,,
51.0159,1430.9445,,,
51.0379,1482.7113,,,
51.0599,1510.8837,,,
51.0819,1464.6135,,,
51.1039,1445.9247,,,
51.1259,1462.723,,,
51.1479,1424.9777,,,
51.1699,1385.0682,,,
51.1919,1391.1756,,,
51.2139,1360.4839,,,
51.2359,1400.0311,,,
51.2579,1436.6746,,,
51.2799,1422.6443,,,
51.3019,1427.5312,,,
51.3239,1427.4394,,,
51.3459,1396.9616,,,
51.3679,1374.5324,,,
51.3899,1373.3698,,,
51.4119,1353.3745,,,
51.4339,1390.5284,,,
51.4559,1426.1736,,,
51.4779,1415.7069,,,
51.4999,1398.4513,,,
51.5219,1420.5351,,,
51.5439,1421.6902,,,
51.5659,1450.1123,,,
51.5879,1447.2885,,,
51.6099,1407.5662,,,
51.6319,1458.0416,,,
51.6539,1416.156,,,
51.6759,1387.1814,,,
51.6979,1428.1153,,,
51.7199,1497.3189,,,
51.7419,1405.7428,,,
51.7639,1382.0339,,,
51.7859,1392.0099,,,
51.8079,1421.4352,,,
51.8299,1390.7225,,,
51.8519,1392.5595,,,
51.8739,1424.3885,,,
51.8959,1388.4954,,,
51.9179,1394.6067,,,
51.9399,1419.533,,,
51.9619,1447.6874,,,
51.9839,1439.7733,,,
52.0059,1366.4668,,,
52.0279,1356.2743,,,
52.0499,1462.323,,,
52.0719,1378.8812,,,
52.0939,1409.7081,,,
52.1159,1456.7313,,,
52.1379,1379.1574,,,
52.1599,1390.009,,,
52.1819,1424.3146,,,
52.2039,1409.1574,,,
52.2259,1427.1444,,,
52.2479,1391.4806,,,
52.2699,1449.7519,,,
52.2919,1380.3763,,,
52.3139,1420.1406,,,
52.3359,1432.7907,,,
52.3579,1457.3362,,,
52.3799,1451.2263,,,
52.4019,1476.3058,,,
52.4239,1470.8891,,,
52.4459,1401.4166,,,
52.4679,1361.8076,,,
52.4899,1425.4603,,,
52.5119,1444.9209,,,
52.5339,1430.5915,,,
52.5559,1374.9325,,,
52.5779,1441.1229,,,
52.5999,1409.449,,,
52.6219,1370.1773,,,
52.6439,1430.9843,,,
52.6659,1428.0569,,,
52.6879,1426.6728,,,
52.7099,1480.7297,,,
52.7319,1482.5347,,,
52.7539,1452.4779,,,
52.7759,1468.4661,,,
52.7979,1466.7728,,,
52.8199,1486.5181,,,
52.8419,1508.3212,,,
52.8639,1482.9604,,,
52.8859,1474.743,,,
52.9079,1475.9301,,,
52.9299,1498.6339,,,
52.9519,1495.1699,,,
52.9739,1562.5882,,,
52.9959,1564.7505,,,
53.0179,1552.6992,,,
53.0399,1559.764,,,
53.0619,1637.5178,,,
53.0839,1680.5219,,,
53.1059,1653.8869,,,
53.1279,1666.652,,,
53.1499,1729.8824,,,
53.1719,1753.758,,,
53.1939,1795.4851,,,
53.2159,1882.7658,,,
53.2379,2031.9732,,,
53.2599,2110.2813,,,
53.2819,2140.2302,,,
53.3039,2089.6196,,,
53.3259,1914.6353,,,
53.3479,1907.8735,,,
53.3699,1868.8207,,,
53.3919,1907.6184,,,
53.4139,1946.3865,,,
53.4359,1845.0501,,,
53.4579,1764.3144,,,
53.4799,1750.7655,,,
53.5019,1715.222,,,
53.5239,1668.6566,,,
53.5459,1643.7551,,,
53.5679,1674.2155,,,
53.5899,1742.3671,,,
53.6119,1805.3542,,,
53.6339,1918.8864,,,
53.6559,2157.2739,,,
53.6779,2486.3731,,,
53.6999,2543.9912,,,
53.7219,2307.3165,,,
53.7439,2063.7099,,,
53.7659,1921.789,,,
53.7879,1962.6285,,,
53.8099,1997.3453,,,
53.8319,1982.6435,,,
53.8539,1818.2943,,,
53.8759,1634.4152,,,
53.8979,1602.0294,,,
53.9199,1604.5928,,,
53.9419,1569.5429,,,
53.9639,1589.9181,,,
53.9859,1531.3498,,,
54.0079,1481.4795,,,
54.0299,1515.9978,,,
54.0519,1468.5724,,,
54.0739,1508.0708,,,
54.0959,1513.5047,,,
54.1179,1478.3412,,,
54.1399,1486.5236,,,
54.1619,1469.5278,,,
54.1839,1423.1415,,,
54.2059,1417.2392,,,
54.2279,1458.5157,,,
54.2499,1448.8703,,,
54.2719,1476.9514,,,
54.2939,1484.5112,,,
54.3159,1459.8604,,,
54.3379,1448.8611,,,
54.3599,1414.7707,,,
54.3819,1460.109,,,
54.4039,1432.056,,,
54.4259,1443.4624,,,
54.4479,1485.1985,,,
54.4699,1457.2654,,,
54.4919,1427.1325,,,
54.5139,1400.6088,,,
54.5359,1402.6488,,,
54.5579,1371.8967,,,
54.5799,1407.6243,,,
54.6019,1455.6606,,,
54.6239,1423.6705,,,
54.6459,1394.0756,,,
54.6679,1354.1104,,,
54.6899,1361.6444,,,
54.7119,1418.891,,,
54.7339,1426.8731,,,
54.7559,1430.5674,,,
54.7779,1433.1494,,,
54.7999,1429.0236,,,
54.8219,1416.5122,,,
54.8439,1419.4638,,,
54.8659,1423.584,,,
54.8879,1432.8763,,,
54.9099,1432.6321,,,
54.9319,1439.6078,,,
54.9539,1439.2752,,,
54.9759,1457.2603,,,
54.9979,1422.6191,,,
55.0199,1390.8776,,,
55.0419,1353.0725,,,
55.0639,1395.3942,,,
55.0859,1416.7452,,,
55.1079,1376.2486,,,
55.1299,1356.5634,,,
55.1519,1387.1821,,,
55.1739,1408.8309,,,
55.1959,1421.4145,,,
55.2179,1505.2768,,,
55.2399,1390.2352,,,
55.2619,1403.6464,,,
55.2839,1429.9602,,,
55.3059,1395.8602,,,
55.3279,1353.2845,,,
55.3499,1408.198,,,
55.3719,1445.2081,,,
55.3939,1399.0764,,,
55.4159,1333.9383,,,
55.4379,1370.4073,,,
55.4599,1357.9512,,,
55.4819,1368.2597,,,
55.5039,1334.1493,,,
55.5259,1382.6964,,,
55.5479,1326.3031,,,
55.5699,1307.0029,,,
55.5919,1331.5267,,,
55.6139,1432.6032,,,
55.6359,1406.9296,,,
55.6579,1318.5748,,,
55.6799,1348.8271,,,
55.7019,1333.6763,,,
55.7239,1288.6493,,,
55.7459,1372.2133,,,
55.7679,1348.1313,,,
55.7899,1354.3631,,,
55.8119,1407.9246,,,
55.8339,1366.9676,,,
55.8559,1379.9514,,,
55.8779,1389.741,,,
55.8999,1319.813,,,
55.9219,1391.1919,,,
55.9439,1402.9816,,,
55.9659,1279.7468,,,
55.9879,1368.6667,,,
56.0099,1365.7145,,,
56.0319,1310.8903,,,
56.0539,1383.1944,,,
56.0759,1341.3167,,,
56.0979,1354.7187,,,
56.1199,1361.6655,,,
56.1419,1416.8448,,,
56.1639,1434.785,,,
56.1859,1410.8908,,,
56.2079,1407.7104,,,
56.2299,1404.585,,,
56.2519,1407.4824,,,
56.2739,1429.591,,,
56.2959,1439.3712,,,
56.3179,1429.2565,,,
56.3399,1407.0866,,,
56.3619,1400.9752,,,
56.3839,1396.9471,,,
56.4059,1439.2046,,,
56.4279,1439.3878,,,
56.4499,1413.2035,,,
56.4719,1399.1922,,,
56.4939,1387.1583,,,
56.5159,1383.2316,,,
56.5379,1383.6824,,,
56.5599,1378.055,,,
56.5819,1358.5515,,,
56.6039,1344.0649,,,
56.6259,1336.0147,,,
56.6479,1336.7081,,,
56.6699,1345.4523,,,
56.6919,1355.0797,,,
56.7139,1354.9881,,,
56.7359,1336.7241,,,
56.7579,1304.7225,,,
56.7799,1253.0602,,,
56.8019,1298.9798,,,
56.8239,1316.2845,,,
56.8459,1277.4512,,,
56.8679,1296.9157,,,
56.8899,1295.8937,,,
56.9119,1317.7303,,,
56.9339,1264.5669,,,
56.9559,1253.3944,,,
56.9779,1255.2419,,,
56.9999,1253,,,
57.0219,1267.1427,,,
57.0439,1247.0308,,,
57.0659,1276.6777,,,
57.0879,1302.8432,,,
57.1099,1313.3481,,,
57.1319,1293.2432,,,
57.1539,1261.0028,,,
57.1759,1241.7138,,,
57.1979,1267.6511,,,
57.2199,1309.7637,,,
57.2419,1264.8316,,,
57.2639,1261.3978,,,
57.2859,1303.0248,,,
57.3079,1283.5884,,,
57.3299,1261.7551,,,
57.3519,1292.5051,,,
57.3739,1310.0561,,,
57.3959,1395.8436,,,
57.4179,1197.2262,,,
57.4399,1313.2129,,,
57.4619,1359.5675,,,
57.4839,1323.8719,,,
57.5059,1272.1918,,,
57.5279,1285.4327,,,
57.5499,1301.8654,,,
57.5719,1323.9293,,,
57.5939,1336.8453,,,
57.6159,1279.3532,,,
57.6379,1312.566,,,
57.6599,1238.0158,,,
57.6819,1265.2727,,,
57.7039,1333.9881,,,
57.7259,1301.0441,,,
57.7479,1280.197,,,
57.7699,1331.5101,,,
57.7919,1302.538,,,
57.8139,1321.0107,,,
57.8359,1312.1815,,,
57.8579,1326.8859,,,
57.8799,1318.7763,,,
57.9019,1314.2241,,,
57.9239,1301.0069,,,
57.9459,1298.7817,,,
57.9679,1302.6372,,,
57.9899,1315.2695,,,
58.0119,1299.1165,,,
58.0339,1229.0356,,,
58.0559,1245.102,,,
58.0779,1213.3758,,,
58.0999,1236.1076,,,
58.1219,1246.5342,,,
58.1439,1255.3045,,,
58.1659,1226.8587,,,
58.1879,1264.7704,,,
58.2099,1259.2064,,,
58.2319,1255.509,,,
58.2539,1284.2774,,,
58.2759,1265.1801,,,
58.2979,1218.4572,,,
58.3199,1226.5124,,,
58.3419,1249.4544,,,
58.3639,1246.224,,,
58.3859,1245.7366,,,
58.4079,1297.196,,,
58.4299,1293.4864,,,
58.4519,1224.4279,,,
58.4739,1214.2224,,,
58.4959,1270.6139,,,
58.5179,1302.9007,,,
58.5399,1293.1513,,,
58.5619,1312.2126,,,
58.5839,1310.8725,,,
58.6059,1270.0519,,,
58.6279,1283.1551,,,
58.6499,1330.7328,,,
58.6719,1330.3455,,,
58.6939,1262.9731,,,
58.7159,1277.1365,,,
58.7379,1340.9954,,,
58.7599,1374.3069,,,
58.7819,1409.1054,,,
58.8039,1468.8351,,,
58.8259,1590.5582,,,
58.8479,1766.434,,,
58.8699,1930.4038,,,
58.8919,2265.6433,,,
58.9139,2523.9066,,,
58.9359,2596.4785,,,
58.9579,2278.3964,,,
58.9799,1979.4801,,,
59.0019,1807.4182,,,
59.0239,1856.6154,,,
59.0459,1857.4985,,,
59.0679,1903.9206,,,
59.0899,1756.1497,,,
59.1119,1552.0399,,,
59.1339,1331.5801,,,
59.1559,1291.5854,,,
59.1779,1277.6646,,,
59.1999,1298.1456,,,
59.2219,1239.6192,,,
59.2439,1274.4726,,,
59.2659,1219.1099,,,
59.2879,1261.8347,,,
59.3099,1247.1084,,,
59.3319,1294.6858,,,
59.3539,1289.0681,,,
59.3759,1350.7025,,,
59.3979,1348.5842,,,
59.4199,1377.2918,,,
59.4419,1331.3965,,,
59.4639,1383.8472,,,
59.4859,1393.3154,,,
59.5079,1352.3997,,,
59.5299,1349.0332,,,
59.5519,1320.155,,,
59.5739,1350.1081,,,
59.5959,1327.0622,,,
59.6179,1301.4074,,,
59.6399,1356.8603,,,
59.6619,1340.3422,,,
59.6839,1332.4424,,,
59.7059,1315.707,,,
59.7279,1326.3792,,,
59.7499,1326.9673,,,
59.7719,1276.7358,,,
59.7939,1266.4791,,,
59.8159,1277.9333,,,
59.8379,1223.0127,,,
59.8599,1214.5979,,,
59.8819,1272.8266,,,
59.9039,1344.1119,,,
59.9259,1314.4326,,,
59.9479,1296.3538,,,
59.9699,1267.7384,,,
59.9919,1234.9924,,,
60.0139,1213.0621,,,
60.0359,1232.1411,,,
60.0579,1243.3698,,,
60.0799,1269.8482,,,
60.1019,1290.8604,,,
60.1239,1256.7184,,,
60.1459,1232.6698,,,
60.1679,1260.0434,,,
60.1899,1277.1711,,,
60.2119,1254.5661,,,
60.2339,1217.1454,,,
60.2559,1251.0908,,,
60.2779,1243.0527,,,
60.2999,1199.7885,,,
60.3219,1191.824,,,
60.3439,1240.2246,,,
60.3659,1225.8305,,,
60.3879,1189.1263,,,
60.4099,1174.8052,,,
60.4319,1127.4343,,,
60.4539,1147.3523,,,
60.4759,1146.7565,,,
60.4979,1162.0808,,,
60.5199,1119.507,,,
60.5419,1130.835,,,
60.5639,1192.7319,,,
60.5859,1141.8629,,,
60.6079,1141.6771,,,
60.6299,1096.0341,,,
60.6519,1140.0176,,,
60.6739,1131.3214,,,
60.6959,1122.4061,,,
60.7179,1122,,,
60.7399,1142.5385,,,
60.7619,1131.9911,,,
60.7839,1098.5397,,,
60.8059,1051.7962,,,
60.8279,1116.3976,,,
60.8499,1108.4571,,,
60.8719,1158.8218,,,
60.8939,1176.7985,,,
60.9159,1157.7629,,,
60.9379,1121.5102,,,
60.9599,1077.4442,,,
60.9819,1141.9718,,,
61.0039,1136.2787,,,
61.0259,1123.2428,,,
61.0479,1144.8595,,,
61.0699,1087.2008,,,
61.0919,1122.2919,,,
61.1139,1192.3658,,,
61.1359,1199.8078,,,
61.1579,1110.2954,,,
61.1799,1181.7771,,,
61.2019,1146.4599,,,
61.2239,1097.9535,,,
61.2459,1138.5635,,,
61.2679,1147.339,,,
61.2899,1120.8882,,,
61.3119,1178.6012,,,
61.3339,1171.2097,,,
61.3559,1203.8754,,,
61.3779,1174.4073,,,
61.3999,1191.4422,,,
61.4219,1136.9872,,,
61.4439,1148.0397,,,
61.4659,1190.28,,,
61.4879,1172.6195,,,
61.5099,1233.1068,,,
61.5319,1183.4088,,,
61.5539,1214.1317,,,
61.5759,1216.4097,,,
61.5979,1216.911,,,
61.6199,1158.2745,,,
61.6419,1166.0755,,,
61.6639,1162.0742,,,
61.6859,1222.2999,,,
61.7079,1219.5506,,,
61.7299,1211.7551,,,
61.7519,1163.9204,,,
61.7739,1113.5773,,,
61.7959,1137.1726,,,
61.8179,1162.5282,,,
61.8399,1182.3835,,,
61.8619,1161.0647,,,
61.8839,1146.8314,,,
61.9059,1188.6345,,,
61.9279,1181.8123,,,
61.9499,1140.9755,,,
61.9719,1127.6458,,,
61.9939,1137.6728,,,
62.0159,1187.5833,,,
62.0379,1205.7197,,,
62.0599,1186.2299,,,
62.0819,1198.1369,,,
62.1039,1186.6536,,,
62.1259,1178.7051,,,
62.1479,1184.9592,,,
62.1699,1161.284,,,
62.1919,1189.1286,,,
62.2139,1250.4123,,,
62.2359,1265.084,,,
62.2579,1207.7607,,,
62.2799,1187.1372,,,
62.3019,1196.942,,,
62.3239,1250.1611,,,
62.3459,1261.6558,,,
62.3679,1218.5219,,,
62.3899,1234.4781,,,
62.4119,1252.5566,,,
62.4339,1231.9615,,,
62.4559,1194.5706,,,
62.4779,1196.3029,,,
62.4999,1161.1733,,,
62.5219,1178.9648,,,
62.5439,1204.0763,,,
62.5659,1235.776,,,
62.5879,1198.3006,,,
62.6099,1232.5814,,,
62.6319,1174.8644,,,
62.6539,1224.7968,,,
62.6759,1229.2905,,,
62.6979,1291.2501,,,
62.7199,1241.336,,,
62.7419,1284.0012,,,
62.7639,1317.4741,,,
62.7859,1319.9646,,,
62.8079,1295.5776,,,
62.8299,1298.9568,,,
62.8519,1344.8964,,,
62.8739,1275.1239,,,
62.8959,1283.6873,,,
62.9179,1272.9972,,,
62.9399,1296.2275,,,
62.9619,1265.2657,,,
62.9839,1298.5486,,,
63.0059,1291.4247,,,
63.0279,1274.8004,,,
63.0499,1269.7491,,,
63.0719,1245.2439,,,
63.0939,1265.7546,,,
63.1159,1329.274,,,
63.1379,1268.8063,,,
63.1599,1275.6033,,,
63.1819,1285.9557,,,
63.2039,1280.3683,,,
63.2259,1295.473,,,
63.2479,1301.6682,,,
63.2699,1312.9304,,,
63.2919,1351.6447,,,
63.3139,1368.28,,,
63.3359,1340.7003,,,
63.3579,1347.2337,,,
63.3799,1339.6864,,,
63.4019,1429.4101,,,
63.4239,1445.3579,,,
63.4459,1441.3333,,,
63.4679,1423.2117,,,
63.4899,1385.7569,,,
63.5119,1380.8808,,,
63.5339,1422.9451,,,
63.5559,1451.6334,,,
63.5779,1472.6283,,,
63.5999,1463.6769,,,
63.6219,1435.9133,,,
63.6439,1399.134,,,
63.6659,1395.3562,,,
63.6879,1448.7068,,,
63.7099,1479.4808,,,
63.7319,1483.945,,,
63.7539,1463.2348,,,
63.7759,1465.4029,,,
63.7979,1487.35,,,
63.8199,1497.4726,,,
63.8419,1490.2535,,,
63.8639,1526.4513,,,
63.8859,1585.8497,,,
63.9079,1551.3182,,,
63.9299,1562.2806,,,
63.9519,1611.097,,,
63.9739,1565.1942,,,
63.9959,1515.6252,,,
64.0179,1522.6697,,,
64.0399,1552.2863,,,
64.0619,1571.8073,,,
64.0839,1602.2116,,,
64.1059,1616.1062,,,
64.1279,1506.9884,,,
64.1499,1521.1322,,,
64.1719,1586.5976,,,
64.1939,1577.2093,,,
64.2159,1527.7696,,,
64.2379,1573.1862,,,
64.2599,1582.907,,,
64.2819,1621.0199,,,
64.3039,1538.3534,,,
64.3259,1588.7733,,,
64.3479,1562.1364,,,
64.3699,1546.3539,,,
64.3919,1603.606,,,
64.4139,1611.2517,,,
64.4359,1600.3628,,,
64.4579,1618.772,,,
64.4799,1637.3983,,,
64.5019,1552.209,,,
64.5239,1661.95,,,
64.5459,1715.4988,,,
64.5679,1631.5836,,,
64.5899,1646.477,,,
64.6119,1784.867,,,
64.6339,1816.9117,,,
64.6559,1897.458,,,
64.6779,1945.1129,,,
64.6999,1907.0357,,,
64.7219,1963.8445,,,
64.7439,1933.0958,,,
64.7659,1822.4248,,,
64.7879,1825.9227,,,
64.8099,1809.2953,,,
64.8319,1869,,,
64.8539,1865.1611,,,
64.8759,1819.0131,,,
64.8979,1710.1065,,,
64.9199,1762.1179,,,
64.9419,1740.8374,,,
64.9639,1693.2568,,,
64.9859,1732.0051,,,
65.0079,1731.2496,,,
65.0299,1635.0561,,,
65.0519,1650.3811,,,
65.0739,1667.6716,,,
65.0959,1675.2345,,,
65.1179,1678.0817,,,
65.1399,1690.0418,,,
65.1619,1695.5135,,,
65.1839,1700.9141,,,
65.2059,1707.876,,,
65.2279,1791.0821,,,
65.2499,1736.5301,,,
65.2719,1718.7109,,,
65.2939,1634.0528,,,
65.3159,1616.0381,,,
65.3379,1661.4918,,,
65.3599,1687.8452,,,
65.3819,1690.5309,,,
65.4039,1672.7369,,,
65.4259,1667.3953,,,
65.4479,1662.1562,,,
65.4699,1636.0048,,,
65.4919,1589.5572,,,
65.5139,1542.2939,,,
65.5359,1563.0672,,,
65.5579,1566.7165,,,
65.5799,1532.2187,,,
65.6019,1481.8196,,,
65.6239,1483.1611,,,
65.6459,1550.3091,,,
65.6679,1528.1476,,,
65.6899,1553.6377,,,
65.7119,1541.8629,,,
65.7339,1530.6875,,,
65.7559,1517.6768,,,
65.7779,1475.1886,,,
65.7999,1456.4606,,,
65.8219,1470.5193,,,
65.8439,1469.5771,,,
65.8659,1521.199,,,
65.8879,1512.8154,,,
65.9099,1458.9535,,,
65.9319,1445.1667,,,
65.9539,1467.301,,,
65.9759,1460.0638,,,
65.9979,1449.6863,,,
66.0199,1459.5709,,,
66.0419,1401.8728,,,
66.0639,1383.4081,,,
66.0859,1387.0413,,,
66.1079,1410.9756,,,
66.1299,1416.8328,,,
66.1519,1358.6855,,,
66.1739,1365.1486,,,
66.1959,1458.4509,,,
66.2179,1437.6016,,,
66.2399,1401.6994,,,
66.2619,1432.4505,,,
66.2839,1449.7833,,,
66.3059,1373.7125,,,
66.3279,1398.1909,,,
66.3499,1412.4248,,,
66.3719,1381.0544,,,
66.3939,1379.0197,,,
66.4159,1350.2137,,,
66.4379,1371.3051,,,
66.4599,1433.4647,,,
66.4819,1460.3245,,,
66.5039,1467.4892,,,
66.5259,1387.3786,,,
66.5479,1395.2612,,,
66.5699,1413.708,,,
66.5919,1427.7304,,,
66.6139,1484.0707,,,
66.6359,1475.5378,,,
66.6579,1473.4062,,,
66.6799,1478.0957,,,
66.7019,1450.8959,,,
66.7239,1463.0471,,,
66.7459,1439.8141,,,
66.7679,1423.4857,,,
66.7899,1427.2805,,,
66.8119,1443.8327,,,
66.8339,1383.2701,,,
66.8559,1470.4619,,,
66.8779,1423.451,,,
66.8999,1378.7346,,,
66.9219,1386.2182,,,
66.9439,1373.3009,,,
66.9659,1386.1978,,,
66.9879,1382.7071,,,
67.0099,1328.9143,,,
67.0319,1328.8597,,,
67.0539,1347.4992,,,
67.0759,1349.1362,,,
67.0979,1398.4275,,,
67.1199,1377.0876,,,
67.1419,1350.1412,,,
67.1639,1302.8211,,,
67.1859,1327.6778,,,
67.2079,1334.3286,,,
67.2299,1307.711,,,
67.2519,1307.2659,,,
67.2739,1292.7522,,,
67.2959,1298.654,,,
67.3179,1313.4759,,,
67.3399,1338.8808,,,
67.3619,1322.4775,,,
67.3839,1266.6625,,,
67.4059,1282.9266,,,
67.4279,1289.6792,,,
67.4499,1252.6095,,,
67.4719,1260.7214,,,
67.4939,1252.0145,,,
67.5159,1272.6454,,,
67.5379,1312.4869,,,
67.5599,1285.9894,,,
67.5819,1263.0678,,,
67.6039,1284.3158,,,
67.6259,1243.1776,,,
67.6479,1242.8753,,,
67.6699,1265.3983,,,
67.6919,1258.7118,,,
67.7139,1288.4545,,,
67.7359,1296.8893,,,
67.7579,1238.5788,,,
67.7799,1227.3014,,,
67.8019,1249.9411,,,
67.8239,1253.6622,,,
67.8459,1216.5887,,,
67.8679,1214.2346,,,
67.8899,1253.542,,,
67.9119,1258.6863,,,
67.9339,1263.885,,,
67.9559,1209.5547,,,
67.9779,1209.5182,,,
67.9999,1229.4293,,,
68.0219,1215.0923,,,
68.0439,1256.3041,,,
68.0659,1264.6578,,,
68.0879,1195.4937,,,
68.1099,1179.6705,,,
68.1319,1227.518,,,
68.1539,1253.127,,,
68.1759,1173.975,,,
68.1979,1241.1744,,,
68.2199,1257.998,,,
68.2419,1253.3094,,,
68.2639,1199.8244,,,
68.2859,1192.8505,,,
68.3079,1188.702,,,
68.3299,1182.6283,,,
68.3519,1186.4289,,,
68.3739,1290.7602,,,
68.3959,1160.6849,,,
68.4179,1250,,,
68.4399,1257.2596,,,
68.4619,1237.7517,,,
68.4839,1160.0231,,,
68.5059,1229.871,,,
68.5279,1209.3852,,,
68.5499,1238.5211,,,
68.5719,1242.0548,,,
68.5939,1273.9939,,,
68.6159,1227.3611,,,
68.6379,1193.5312,,,
68.6599,1218.8862,,,
68.6819,1199.0169,,,
68.7039,1218.7492,,,
68.7259,1200.0883,,,
68.7479,1181.5006,,,
68.7699,1189.3057,,,
68.7919,1190.5637,,,
68.8139,1216.3734,,,
68.8359,1190.0339,,,
68.8579,1195.5694,,,
68.8799,1198.6769,,,
68.9019,1183.462,,,
68.9239,1158.9424,,,
68.9459,1168.1478,,,
68.9679,1189.4482,,,
68.9899,1172.8614,,,
69.0119,1174.443,,,
69.0339,1181.829,,,
69.0559,1192.3378,,,
69.0779,1192.1209,,,
69.0999,1185.555,,,
69.1219,1176.9557,,,
69.1439,1203.52,,,
69.1659,1176.3957,,,
69.1879,1164.9738,,,
69.2099,1159.2484,,,
69.2319,1189.1156,,,
69.2539,1236.5782,,,
69.2759,1173.82,,,
69.2979,1180.029,,,
69.3199,1187.1679,,,
69.3419,1205.5037,,,
69.3639,1214.4866,,,
69.3859,1194.3096,,,
69.4079,1228.1813,,,
69.4299,1222.6163,,,
69.4519,1191.4025,,,
69.4739,1208.9402,,,
69.4959,1223.5669,,,
69.5179,1230.0797,,,
69.5399,1170.7493,,,
69.5619,1188.7633,,,
69.5839,1189.0368,,,
69.6059,1134.6358,,,
69.6279,1154.6335,,,
69.6499,1254.3339,,,
69.6719,1220.9923,,,
69.6939,1161.8561,,,
69.7159,1176.2524,,,
69.7379,1153.8455,,,
69.7599,1155.887,,,
69.7819,1097.625,,,
69.8039,1136.8145,,,
69.8259,1121.4541,,,
69.8479,1108.9896,,,
69.8699,1113.534,,,
69.8919,1182.227,,,
69.9139,1175.6371,,,
69.9359,1187.4696,,,
69.9579,1192.8575,,,
69.9799,1198.9027,,,
70.0019,1122.3024,,,
70.0239,1198.6069,,,
70.0459,1152.1859,,,
70.0679,1163.1085,,,
70.0899,1223.462,,,
70.1119,1191.4602,,,
70.1339,1201.5135,,,
70.1559,1230.9766,,,
70.1779,1189.1152,,,
70.1999,1216.9729,,,
70.2219,1198.8102,,,
70.2439,1187.6371,,,
70.2659,1177.1683,,,
70.2879,1208.9351,,,
70.3099,1202.7341,,,
70.3319,1161.6155,,,
70.3539,1217.7854,,,
70.3759,1189.7615,,,
70.3979,1232.4401,,,
70.4199,1163.4686,,,
70.4419,1123.965,,,
70.4639,1180.863,,,
70.4859,1192.2063,,,
70.5079,1193.6465,,,
70.5299,1233.2227,,,
70.5519,1176.1904,,,
70.5739,1206.6787,,,
70.5959,1234.6234,,,
70.6179,1223.3291,,,
70.6399,1203.338,,,
70.6619,1242.0514,,,
70.6839,1256.8017,,,
70.7059,1229.5486,,,
70.7279,1239.8788,,,
70.7499,1304.4292,,,
70.7719,1328.2932,,,
70.7939,1311.1733,,,
70.8159,1398.3144,,,
70.8379,1497.0829,,,
70.8599,1596.3135,,,
70.8819,1769.6166,,,
70.9039,1941.5008,,,
70.9259,2012.4631,,,
70.9479,1940.1807,,,
70.9699,1736.9484,,,
70.9919,1563.1814,,,
71.0139,1508.3322,,,
71.0359,1537.2939,,,
71.0579,1554.4512,,,
71.0799,1597.8584,,,
71.1019,1650.9294,,,
71.1239,1622.5105,,,
71.1459,1500.1781,,,
71.1679,1379.2502,,,
71.1899,1330.1444,,,
71.2119,1253.7757,,,
71.2339,1259.6935,,,
71.2559,1269.6401,,,
71.2779,1295.0671,,,
71.2999,1266.6103,,,
71.3219,1212.1226,,,
71.3439,1284.5159,,,
71.3659,1257.1412,,,
71.3879,1214.3469,,,
71.4099,1200.7384,,,
71.4319,1175.1503,,,
71.4539,1223.0879,,,
71.4759,1217.1498,,,
71.4979,1190.5397,,,
71.5199,1218.0779,,,
71.5419,1184.6035,,,
71.5639,1203.1934,,,
71.5859,1230.7878,,,
71.6079,1277.7726,,,
71.6299,1201.4951,,,
71.6519,1204.0148,,,
71.6739,1210.5812,,,
71.6959,1211,,,
71.7179,1211,,,
71.7399,1236.1437,,,
71.7619,1267.3601,,,
71.7839,1246.1838,,,
71.8059,1213.0945,,,
71.8279,1237.0811,,,
71.8499,1243.2549,,,
71.8719,1282.6534,,,
71.8939,1206.0179,,,
71.9159,1247.1007,,,
71.9379,1314.0959,,,
71.9599,1235.3623,,,
71.9819,1157.9199,,,
72.0039,1245,,,
72.0259,1252.8647,,,
72.0479,1299.6256,,,
72.0699,1257.0286,,,
72.0919,1276.947,,,
72.1139,1292.7041,,,
72.1359,1282.8187,,,
72.1579,1239.6405,,,
72.1799,1286.3361,,,
72.2019,1270.1596,,,
72.2239,1301.0764,,,
72.2459,1284.732,,,
72.2679,1352.0061,,,
72.2899,1395.071,,,
72.3119,1409.802,,,
72.3339,1368.7935,,,
72.3559,1381.4028,,,
72.3779,1355.6797,,,
72.3999,1302.9599,,,
72.4219,1382,,,
72.4439,1396.7756,,,
72.4659,1390.9503,,,
72.4879,1354.3233,,,
72.5099,1403.4516,,,
72.5319,1461.8012,,,
72.5539,1435.7248,,,
72.5759,1362.0238,,,
72.5979,1386.5891,,,
72.6199,1385.4497,,,
72.6419,1384.775,,,
72.6639,1386.8843,,,
72.6859,1424.0625,,,
72.7079,1463.8426,,,
72.7299,1438.3951,,,
72.7519,1429.857,,,
72.7739,1419.2024,,,
72.7959,1453.9051,,,
72.8179,1476.0588,,,
72.8399,1466.9081,,,
72.8619,1420.8933,,,
72.8839,1455.8944,,,
72.9059,1442.4803,,,
72.9279,1485.217,,,
72.9499,1537.4307,,,
72.9719,1567.2146,,,
72.9939,1556.2967,,,
73.0159,1571.1979,,,
73.0379,1548.0036,,,
73.0599,1523.5457,,,
73.0819,1500.6459,,,
73.1039,1546.2251,,,
73.1259,1577.8624,,,
73.1479,1563.9114,,,
73.1699,1594.0013,,,
73.1919,1639.2441,,,
73.2139,1588.1264,,,
73.2359,1616.96,,,
73.2579,1635.3363,,,
73.2799,1663.4781,,,
73.3019,1630.3724,,,
73.3239,1689.4577,,,
73.3459,1689.7639,,,
73.3679,1680.9872,,,
73.3899,1680.8889,,,
73.4119,1674.6917,,,
73.4339,1688.6156,,,
73.4559,1730.7338,,,
73.4779,1743.3806,,,
73.4999,1780.1133,,,
73.5219,1782,,,
73.5439,1801.4986,,,
73.5659,1839.5145,,,
73.5879,1826.0068,,,
73.6099,1845.366,,,
73.6319,1875.5181,,,
73.6539,1856.4003,,,
73.6759,1871.5758,,,
73.6979,1966.3043,,,
73.7199,2050.7106,,,
73.7419,2080.1236,,,
73.7639,2025.3583,,,
73.7859,2004.304,,,
73.8079,2024.6339,,,
73.8299,1982.5026,,,
73.8519,1999.1197,,,
73.8739,1968.6638,,,
73.8959,1966.8946,,,
73.9179,1867.5743,,,
73.9399,1886.4545,,,
73.9619,1916.5831,,,
73.9839,1905.2869,,,
74.0059,1852.3565,,,
74.0279,1805.9654,,,
74.0499,1822.373,,,
74.0719,1717.8359,,,
74.0939,1677.8528,,,
74.1159,1710.0615,,,
74.1379,1683.7074,,,
74.1599,1593.536,,,
74.1819,1544.7098,,,
74.2039,1536.1859,,,
74.2259,1535.5416,,,
74.2479,1511.8953,,,
74.2699,1506.9557,,,
74.2919,1492.5721,,,
74.3139,1460.5799,,,
74.3359,1440.0089,,,
74.3579,1437.1169,,,
74.3799,1429.3039,,,
74.4019,1438.7257,,,
74.4239,1425.6699,,,
74.4459,1385.9299,,,
74.4679,1381.1728,,,
74.4899,1398.4897,,,
74.5119,1379.4649,,,
74.5339,1345.575,,,
74.5559,1347.8306,,,
74.5779,1379.5783,,,
74.5999,1350.0674,,,
74.6219,1317.5772,,,
74.6439,1333.3266,,,
74.6659,1310.3006,,,
74.6879,1303.9657,,,
74.7099,1345.9443,,,
74.7319,1344.5632,,,
74.7539,1342.7641,,,
74.7759,1337.3883,,,
74.7979,1331.3245,,,
74.8199,1350.9466,,,
74.8419,1298.3908,,,
74.8639,1299.071,,,
74.8859,1299.8544,,,
74.9079,1298.9479,,,
74.9299,1282.0176,,,
74.9519,1311.7933,,,
74.9739,1328.417,,,
74.9959,1281.2592,,,
75.0179,1276.7828,,,
75.0399,1338.9936,,,
75.0619,1309.3802,,,
75.0839,1286.6351,,,
75.1059,1267.0481,,,
75.1279,1297.5356,,,
75.1499,1307.3609,,,
75.1719,1219.553,,,
75.1939,1263.5992,,,
75.2159,1294.5444,,,
75.2379,1314.5055,,,
75.2599,1314.1327,,,
75.2819,1232.6504,,,
75.3039,1228.9582,,,
75.3259,1271.7023,,,
75.3479,1288.7248,,,
75.3699,1260.1424,,,
75.3919,1258.0886,,,
75.4139,1269.5279,,,
75.4359,1244.5297,,,
75.4579,1205.5317,,,
75.4799,1323.5864,,,
75.5019,1299.6558,,,
75.5239,1294.1076,,,
75.5459,1286.0552,,,
75.5679,1296.0634,,,
75.5899,1216.13,,,
75.6119,1253.9054,,,
75.6339,1306.4162,,,
75.6559,1338.0307,,,
75.6779,1307.0209,,,
75.6999,1347.2042,,,
75.7219,1366.0146,,,
75.7439,1333.3699,,,
75.7659,1278.9142,,,
75.7879,1255.602,,,
75.8099,1283.9045,,,
75.8319,1270.2404,,,
75.8539,1281.8056,,,
75.8759,1312.4998,,,
75.8979,1302.2824,,,
75.9199,1334.3733,,,
75.9419,1336.1766,,,
75.9639,1339.7536,,,
75.9859,1377.3117,,,
76.0079,1275.3036,,,
76.0299,1276.8984,,,
76.0519,1243.7611,,,
76.0739,1238.7363,,,
76.0959,1247.4458,,,
76.1179,1266.3507,,,
76.1399,1245.5055,,,
76.1619,1254.3746,,,
76.1839,1263.596,,,
76.2059,1259.1276,,,
76.2279,1225.5623,,,
76.2499,1213.5133,,,
76.2719,1203.5186,,,
76.2939,1173.5475,,,
76.3159,1133.0558,,,
76.3379,1130.0769,,,
76.3599,1154.9637,,,
76.3819,1157.2743,,,
76.4039,1113.6245,,,
76.4259,1086.1701,,,
76.4479,1123.4384,,,
76.4699,1154.7061,,,
76.4919,1190.0967,,,
76.5139,1160.799,,,
76.5359,1141.4047,,,
76.5579,1127.5534,,,
76.5799,1115.9867,,,
76.6019,1082.1974,,,
76.6239,1119.176,,,
76.6459,1121.4689,,,
76.6679,1117.3216,,,
76.6899,1110.9419,,,
76.7119,1083.4202,,,
76.7339,1112.8567,,,
76.7559,1158.8547,,,
76.7779,1152.5839,,,
76.7999,1099.5655,,,
76.8219,1134.5716,,,
76.8439,1156.6417,,,
76.8659,1126.5956,,,
76.8879,1147.8247,,,
76.9099,1061.4654,,,
76.9319,1116.2881,,,
76.9539,1119.9596,,,
76.9759,1083.3065,,,
76.9979,1056.3843,,,
77.0199,1141.1073,,,
77.0419,1131.345,,,
77.0639,1084.808,,,
77.0859,1066.7393,,,
77.1079,1112.372,,,
77.1299,1112.0433,,,
77.1519,1121.9066,,,
77.1739,1101.1241,,,
77.1959,1143.0762,,,
77.2179,1148.6884,,,
77.2399,1171.9246,,,
77.2619,1147.0424,,,
77.2839,1165.3559,,,
77.3059,1156.8437,,,
77.3279,1165.6651,,,
77.3499,1147.5435,,,
77.3719,1106.2964,,,
77.3939,1102.5658,,,
77.4159,1156.9803,,,
77.4379,1083.6549,,,
77.4599,1100.9742,,,
77.4819,1139.3745,,,
77.5039,1132.4323,,,
77.5259,1141.8275,,,
77.5479,1096.8666,,,
77.5699,1142.3452,,,
77.5919,1148.6554,,,
77.6139,1160.9658,,,
77.6359,1171.8183,,,
77.6579,1135.8927,,,
77.6799,1141.2803,,,
77.7019,1192.4659,,,
77.7239,1155.4191,,,
77.7459,1131.3856,,,
77.7679,1137.9511,,,
77.7899,1120.1653,,,
77.8119,1103.561,,,
77.8339,1067.8054,,,
77.8559,1096.7431,,,
77.8779,1097.8276,,,
77.8999,1067.1284,,,
77.9219,1054.1157,,,
77.9439,1093.736,,,
77.9659,1143.5747,,,
77.9879,1049.4316,,,
78.0099,1017.8006,,,
78.0319,1062.1507,,,
78.0539,1095.9028,,,
78.0759,1119.6998,,,
78.0979,1096.0998,,,
78.1199,1041.3356,,,
78.1419,1060.9758,,,
78.1639,1150.9417,,,
78.1859,1174.6979,,,
78.2079,1152.3549,,,
78.2299,1089.1144,,,
78.2519,1098.8383,,,
78.2739,1120.8848,,,
78.2959,1118.4086,,,
78.3179,1094.0322,,,
78.3399,1061.3317,,,
78.3619,1045.3333,,,
78.3839,1065.0848,,,
78.4059,1106.4152,,,
78.4279,1140.4028,,,
78.4499,1103.1864,,,
78.4719,1089.3688,,,
78.4939,1049.5365,,,
78.5159,1071.8828,,,
78.5379,1114.6,,,
78.5599,1065.7031,,,
78.5819,1090.8479,,,
78.6039,1081.1513,,,
78.6259,1038.5484,,,
78.6479,1085.3726,,,
78.6699,1104.5487,,,
78.6919,1111.1062,,,
78.7139,1157.7565,,,
78.7359,1127.3483,,,
78.7579,1125.5516,,,
78.7799,1101.6945,,,
78.8019,1082.5751,,,
78.8239,1093.0222,,,
78.8459,1097.7483,,,
78.8679,1099.8987,,,
78.8899,1109.6166,,,
78.9119,1115.8437,,,
78.9339,1162.3533,,,
78.9559,1137.0382,,,
78.9779,1130.2965,,,
78.9999,1066.2774,,,
79.0219,1077.9292,,,
79.0439,1078.0509,,,
79.0659,1114.3211,,,
79.0879,1041.7951,,,
79.1099,1051.7463,,,
79.1319,1056.1676,,,
79.1539,1123.8732,,,
79.1759,1128.4497,,,
79.1979,1106.1217,,,
79.2199,1074.5749,,,
79.2419,1043.4909,,,
79.2639,1074.7585,,,
79.2859,1054.9763,,,
79.3079,1041.4893,,,
79.3299,1074.1086,,,
79.3519,1126.0221,,,
79.3739,1106.9328,,,
79.3959,1076.7741,,,
79.4179,1117.0091,,,
79.4399,1142.5039,,,
79.4619,1124.5632,,,
79.4839,1083.0409,,,
79.5059,1059.7704,,,
79.5279,1081.9634,,,
79.5499,1040.387,,,
79.5719,1091.3208,,,
79.5939,1078.3591,,,
79.6159,1075.1279,,,
79.6379,1071.9554,,,
79.6599,1120.2854,,,
