Angle,Counts
8.5339,5073.4868
8.5559,5076.2812
8.5779,5101.471
8.5999,5111.323
8.6219,4988.9468
8.6439,5089.9952
8.6659,4998.9055
8.6879,5050.4312
8.7099,5045.821
8.7319,5049.6062
8.7539,5007.5555
8.7759,4983.7291
8.7979,5030.7463
8.8199,4901.2507
8.8419,4916.9627
8.8639,4963.087
8.8859,4906.1357
8.9079,4865.6303
8.9299,4890.7876
8.9519,4978.5094
8.9739,4797.1533
8.9959,4906.5561
9.0179,4928.2527
9.0399,4882.1219
9.0619,4938.8407
9.0839,4813.0727
9.1059,4739.7895
9.1279,4768.5885
9.1499,4661.1061
9.1719,4807.3166
9.1939,4831.2949
9.2159,4680.1893
9.2379,4747.0945
9.2599,4896.1754
9.2819,4723.998
9.3039,4676.4872
9.3259,4718.2832
9.3479,4750.3254
9.3699,4686.293
9.3919,4679.6372
9.4139,4703.5467
9.4359,4648.9445
9.4579,4726.3775
9.4799,4634.765
9.5019,4598.586
9.5239,4581.885
9.5459,4641.41
9.5679,4616.5811
9.5899,4640.1416
9.6119,4607.6597
9.6339,4515.1486
9.6559,4606.6592
9.6779,4523.7021
9.6999,4554.6573
9.7219,4586.3363
9.7439,4623.9484
9.7659,4596.1337
9.7879,4506.7581
9.8099,4563.182
9.8319,4687.0998
9.8539,4617.3037
9.8759,4524.9248
9.8979,4535.997
9.9199,4523.4203
9.9419,4582.2243
9.9639,4648.3023
9.9859,4587.3834
10.0079,4577.8776
10.0299,4641.0423
10.0519,4620.7345
10.0739,4644.5271
10.0959,4751.2026
10.1179,4823.5487
10.1399,4893.8565
10.1619,4904.9882
10.1839,4934.7124
10.2059,5098.5773
10.2279,5157.1322
10.2499,5174.0413
10.2719,5283.1171
10.2939,5267.6322
10.3159,5172.1106
10.3379,4932.2388
10.3599,4776.7232
10.3819,4620.348
10.4039,4387.8966
10.4259,4329.6618
10.4479,4248.3731
10.4699,4198.061
10.4919,4178.5221
10.5139,4229.5576
10.5359,4072.2221
10.5579,4141.9893
10.5799,4136.6991
10.6019,4076.7659
10.6239,3976.9906
10.6459,4132.475
10.6679,4060.2654
10.6899,4031.5467
10.7119,4043.0752
10.7339,3938.9232
10.7559,3960.8506
10.7779,3978.6283
10.7999,3815.1685
10.8219,3895.2469
10.8439,3928.472
10.8659,3950.1121
10.8879,3957.7901
10.9099,4003.1859
10.9319,3926.4218
10.9539,3924.3166
10.9759,3969.9808
10.9979,3969.0944
11.0199,3970.4248
11.0419,3928.4896
11.0639,3799.8815
11.0859,3773.3383
11.1079,3798.4203
11.1299,3780.1593
11.1519,3749.1848
11.1739,3706.5664
11.1959,3760.8741
11.2179,3724.0924
11.2399,3634.6667
11.2619,3693.5694
11.2839,3742.6238
11.3059,3637.6194
11.3279,3620.5256
11.3499,3695.5064
11.3719,3656.6342
11.3939,3677.5881
11.4159,3746.0904
11.4379,3652.5988
11.4599,3558.8839
11.4819,3515.1869
11.5039,3616.416
11.5259,3631.7885
11.5479,3523.6937
11.5699,3544.2006
11.5919,3575.6367
11.6139,3563.7315
11.6359,3546.5516
11.6579,3567.0089
11.6799,3602.2498
11.7019,3607.2035
11.7239,3556.4783
11.7459,3514.234
11.7679,3472.6017
11.7899,3441.65
11.8119,3482.4036
11.8339,3457.584
11.8559,3524.5227
11.8779,3556.3657
11.8999,3520.739
11.9219,3546.8584
11.9439,3548.8402
11.9659,3507.9469
11.9879,3539.4563
12.0099,3509.9744
12.0319,3483.3201
12.0539,3532.4219
12.0759,3490.6273
12.0979,3539.9204
12.1199,3471.1375
12.1419,3460.6244
12.1639,3439.2463
12.1859,3476.3953
12.2079,3490.6804
12.2299,3438.4955
12.2519,3453.6746
12.2739,3555.3216
12.2959,3511.0929
12.3179,3409.3382
12.3399,3380.5315
12.3619,3363.9233
12.3839,3474.4239
12.4059,3433.2802
12.4279,3402.2227
12.4499,3377.0904
12.4719,3363.5954
12.4939,3358.531
12.5159,3321.059
12.5379,3342.7552
12.5599,3342.3835
12.5819,3410.7316
12.6039,3353.8475
12.6259,3380.0531
12.6479,3328.6155
12.6699,3463.1132
12.6919,3481.6903
12.7139,3401.7964
12.7359,3234.2041
12.7579,3316.941
12.7799,3312.2158
12.8019,3286.1633
12.8239,3339.5162
12.8459,3352.1318
12.8679,3396.3235
12.8899,3371.3097
12.9119,3319.0693
12.9339,3291.237
12.9559,3352.5133
12.9779,3386.8909
12.9999,3396.9026
13.0219,3356.5163
13.0439,3368.9429
13.0659,3296.9233
13.0879,3342.2744
13.1099,3451.7719
13.1319,3483.8714
13.1539,3619.3214
13.1759,3488.7167
13.1979,3371.3303
13.2199,3314.3673
13.2419,3357.0974
13.2639,3403.1022
13.2859,3385.2213
13.3079,3396.4071
13.3299,3370.997
13.3519,3382.1711
13.3739,3434.6353
13.3959,3506.6426
13.4179,3548.4513
13.4399,3541.3353
13.4619,3572.1918
13.4839,3612.2123
13.5059,3571.3265
13.5279,3545.8544
13.5499,3498.7699
13.5719,3571.1658
13.5939,3621.1189
13.6159,3599.7051
13.6379,3606.7699
13.6599,3613.8968
13.6819,3700.7169
13.7039,3798.8314
13.7259,3798.9999
13.7479,3749.9896
13.7699,3758.946
13.7919,3875.3433
13.8139,3955.0944
13.8359,3946.3407
13.8579,4018.4387
13.8799,4144.6328
13.9019,4155.9596
13.9239,4290.2219
13.9459,4370.0708
13.9679,4432.0959
13.9899,4568.6756
14.0119,4780.9589
14.0339,4766.9606
14.0559,4833.1899
14.0779,4976.0709
14.0999,5146.5528
14.1219,5341.8055
14.1439,5606.9442
14.1659,5671.6096
14.1879,6092.8529
14.2099,6398.7937
14.2319,6594.7234
14.2539,7079.0398
14.2759,7272.8939
14.2979,7466.8999
14.3199,7571.8673
14.3419,7736.7494
14.3639,7787.7439
14.3859,7492.455
14.4079,7096.1781
14.4299,6635.4686
14.4519,6315.0012
14.4739,5562.2029
14.4959,5179.2465
14.5179,4914.5111
14.5399,4597.9127
14.5619,4298.9242
14.5839,4160.4846
14.6059,3998.2771
14.6279,3797.9547
14.6499,3716.5573
14.6719,3494.1947
14.6939,3515.7983
14.7159,3390.9135
14.7379,3377.4041
14.7599,3333.7408
14.7819,3245.7531
14.8039,3125.1033
14.8259,3153.4641
14.8479,3167.8544
14.8699,3065.4955
14.8919,2948.409
14.9139,2911.8938
14.9359,2940
14.9579,2935.8545
14.9799,2919.4139
15.0019,2906.8525
15.0239,2885.8407
15.0459,2846.707
15.0679,2831.6504
15.0899,2799.6352
15.1119,2797.3712
15.1339,2809.5045
15.1559,2839.9105
15.1779,2791.7905
15.1999,2751.8481
15.2219,2787.5654
15.2439,2748.8288
15.2659,2702.1416
15.2879,2730.9926
15.3099,2747.4051
15.3319,2699.5692
15.3539,2652.2085
15.3759,2692.0502
15.3979,2758.0709
15.4199,2728.2029
15.4419,2639.6293
15.4639,2618.5752
15.4859,2630.9371
15.5079,2598.9493
15.5299,2576.4661
15.5519,2553.73
15.5739,2591.6805
15.5959,2634.5988
15.6179,2577.8672
15.6399,2533.6268
15.6619,2566.2301
15.6839,2565.9184
15.7059,2630.1014
15.7279,2616.4247
15.7499,2619.826
15.7719,2600.8633
15.7939,2643.8732
15.8159,2612.0363
15.8379,2639.5428
15.8599,2602.4114
15.8819,2646.3265
15.9039,2678.3579
15.9259,2556.4541
15.9479,2523.5939
15.9699,2549.0866
15.9919,2532.8186
16.0139,2595.5399
16.0359,2576.0014
16.0579,2603.4779
16.0799,2686.4922
16.1019,2593.8072
16.1239,2635.5074
16.1459,2661.059
16.1679,2690.5959
16.1899,2473.0116
16.2119,2610.0002
16.2339,2519.4994
16.2559,2452.9822
16.2779,2438.2429
16.2999,2482.7124
16.3219,2453.0944
16.3439,2468.4906
16.3659,2442.5851
16.3879,2491.4601
16.4099,2456.2291
16.4319,2439.9016
16.4539,2402.1771
16.4759,2462.5516
16.4979,2454.1375
16.5199,2335.9322
16.5419,2357.4269
16.5639,2453.3068
16.5859,2440.6991
16.6079,2427.0059
16.6299,2403.8465
16.6519,2339.2169
16.6739,2426.6716
16.6959,2443.6288
16.7179,2403.3303
16.7399,2363.6471
16.7619,2454.707
16.7839,2408.5427
16.8059,2356.3147
16.8279,2417.4026
16.8499,2411.3009
16.8719,2437.6805
16.8939,2456.2457
16.9159,2396.9145
16.9379,2407.7462
16.9599,2348.8544
16.9819,2387.5695
17.0039,2435.5692
17.0259,2393.1387
17.0479,2447.4071
17.0699,2480.0374
17.0919,2455.9251
17.1139,2392.7257
17.1359,2422.1908
17.1579,2412.9468
17.1799,2376.4558
17.2019,2361.0835
17.2239,2322.0771
17.2459,2356.3453
17.2679,2394.174
17.2899,2383
17.3119,2399.7699
17.3339,2377.5801
17.3559,2381.9298
17.3779,2364.6725
17.3999,2333.1347
17.4219,2388.9431
17.4439,2370.584
17.4659,2360.2862
17.4879,2396.3211
17.5099,2313.2447
17.5319,2322.5984
17.5539,2351.0826
17.5759,2354.826
17.5979,2322.2173
17.6199,2253.4385
17.6419,2289.4957
17.6639,2310.5113
17.6859,2330.1987
17.7079,2358.6269
17.7299,2305.5604
17.7519,2393.8217
17.7739,2330.7521
17.7959,2267.8711
17.8179,2268.2586
17.8399,2202.5353
17.8619,2205.7267
17.8839,2260.7139
17.9059,2243.056
17.9279,2253.5472
17.9499,2244.9302
17.9719,2255.1328
17.9939,2264.4602
18.0159,2258.3338
18.0379,2325.5222
18.0599,2237.1489
18.0819,2303.2538
18.1039,2241.1683
18.1259,2353.2516
18.1479,2229.2508
18.1699,2275.5398
18.1919,2265.266
18.2139,2290.3845
18.2359,2304.4556
18.2579,2221.8997
18.2799,2195.2094
18.3019,2159.1741
18.3239,2220.6023
18.3459,2255.3235
18.3679,2268.6593
18.3899,2267.7729
18.4119,2278.7029
18.4339,2173.0355
18.4559,2206.3008
18.4779,2168.0502
18.4999,2194.3496
18.5219,2210.1297
18.5439,2183.1932
18.5659,2203.6726
18.5879,2228.1471
18.6099,2250.3274
18.6319,2224.1814
18.6539,2222.8201
18.6759,2252.7896
18.6979,2216.9999
18.7199,2175.9357
18.7419,2225.5379
18.7639,2236.2684
18.7859,2229.6874
18.8079,2250.3387
18.8299,2205.3009
18.8519,2214.1942
18.8739,2231.5251
18.8959,2167.0618
18.9179,2159.9618
18.9399,2165.6566
18.9619,2141.3335
18.9839,2176.3303
19.0059,2181.3137
19.0279,2193.4336
19.0499,2164.2202
19.0719,2147.6617
19.0939,2146.2183
19.1159,2202.419
19.1379,2266.5871
19.1599,2235.6843
19.1819,2172.8131
19.2039,2201.6663
19.2259,2258.3894
19.2479,2226.5948
19.2699,2201.3058
19.2919,2148.1194
19.3139,2180.6186
19.3359,2177.2703
19.3579,2162.2979
19.3799,2131.997
19.4019,2210.831
19.4239,2259.0398
19.4459,2300.0591
19.4679,2260.8441
19.4899,2238.7935
19.5119,2184.9852
19.5339,2255.8418
19.5559,2262.3717
19.5779,2175.6774
19.5999,2178.9317
19.6219,2207.6372
19.6439,2156.8416
19.6659,2213.5606
19.6879,2219.4543
19.7099,2148.0009
19.7319,2161.8643
19.7539,2211.0886
19.7759,2160.7354
19.7979,2179.7493
19.8199,2243.4116
19.8419,2151.6705
19.8639,2169.68
19.8859,2162.0236
19.9079,2273.0844
19.9299,2176.7355
19.9519,2209.4233
19.9739,2190.6892
19.9959,2144.4042
20.0179,2164.1681
20.0399,2134.8104
20.0619,2222.3353
20.0839,2239.6299
20.1059,2264.3243
20.1279,2169.1579
20.1499,2207.9145
20.1719,2234.177
20.1939,2207.1612
20.2159,2151.7213
20.2379,2182.9834
20.2599,2243.0481
20.2819,2172.8378
20.3039,2177.9272
20.3259,2179.4583
20.3479,2239.5516
20.3699,2253.4189
20.3919,2264.0064
20.4139,2273.7435
20.4359,2326.0879
20.4579,2268.2536
20.4799,2248.9043
20.5019,2300.6932
20.5239,2293.0281
20.5459,2339.1682
20.5679,2386.9529
20.5899,2438.5399
20.6119,2503.3188
20.6339,2542.2192
20.6559,2442.168
20.6779,2402.9647
20.6999,2412.9207
20.7219,2369.823
20.7439,2327.8406
20.7659,2287.4887
20.7879,2285.9961
20.8099,2305.0443
20.8319,2341.8181
20.8539,2353.7729
20.8759,2308.6385
20.8979,2234.6292
20.9199,2246.5301
20.9419,2324.3747
20.9639,2287.4797
20.9859,2245.2812
21.0079,2259.854
21.0299,2207.1985
21.0519,2196.9937
21.0739,2251.6284
21.0959,2246.0776
21.1179,2211.7541
21.1399,2266.8807
21.1619,2300.6795
21.1839,2307.3333
21.2059,2279.6194
21.2279,2305.5935
21.2499,2333.1819
21.2719,2304.8303
21.2939,2327.9145
21.3159,2269.3426
21.3379,2234.2183
21.3599,2278.4126
21.3819,2178.2319
21.4039,2246.4294
21.4259,2307.5861
21.4479,2257.5987
21.4699,2220.7758
21.4919,2283.1781
21.5139,2243.8573
21.5359,2189.3805
21.5579,2261.3561
21.5799,2233.9788
21.6019,2256.8496
21.6239,2182.4925
21.6459,2310.3847
21.6679,2186.9364
21.6899,2288.6164
21.7119,2211
21.7339,2211.354
21.7559,2229.2687
21.7779,2368.6734
21.7999,2296.1195
21.8219,2330.403
21.8439,2225.0036
21.8659,2294.587
21.8879,2295.3904
21.9099,2320.819
21.9319,2272.9868
21.9539,2332.5163
21.9759,2391.1647
21.9979,2379.0795
22.0199,2337.5498
22.0419,2393.6173
22.0639,2309.5546
22.0859,2335.7984
22.1079,2317.0462
22.1299,2319.5163
22.1519,2302.0691
22.1739,2246.9216
22.1959,2359.7655
22.2179,2362.2054
22.2399,2295.8391
22.2619,2268.773
22.2839,2326.5599
22.3059,2354.1713
22.3279,2438.2183
22.3499,2451.1663
22.3719,2513.9283
22.3939,2591.8232
22.4159,2650.7684
22.4379,2650.6913
22.4599,2648.649
22.4819,2681.9234
22.5039,2748.3875
22.5259,2786.9912
22.5479,2814.2326
22.5699,2872.1594
22.5919,2932.177
22.6139,2982.1279
22.6359,3070.2096
22.6579,3200.6787
22.6799,3301.0168
22.7019,3365.6324
22.7239,3352.14
22.7459,3483.5943
22.7679,3604.1077
22.7899,3712.2126
22.8119,3840.0714
22.8339,3964.3031
22.8559,4078.2907
22.8779,4263.4428
22.8999,4412.2209
22.9219,4582.8705
22.9439,4759.4088
22.9659,4912.0809
22.9879,5099.7481
23.0099,5171.0748
23.0319,5312.841
23.0539,5623.9032
23.0759,5797.7313
23.0979,5901.5714
23.1199,5864.9276
23.1419,5785.7098
23.1639,5804.9652
23.1859,5774.1681
23.2079,5687.6709
23.2299,5622.9478
23.2519,5522.8538
23.2739,5304.4392
23.2959,5331.3256
23.3179,5201.6605
23.3399,5234.4106
23.3619,5168.5112
23.3839,5031.7653
23.4059,5018.2547
23.4279,4947.7344
23.4499,4945.0118
23.4719,4896.0232
23.4939,4942.6037
23.5159,4909.9438
23.5379,4832.3541
23.5599,4889.1764
23.5819,4817.4868
23.6039,4838.8122
23.6259,4815.6065
23.6479,4736.7833
23.6699,4822.3333
23.6919,4786.4596
23.7139,4724.1237
23.7359,4629.8074
23.7579,4673.3275
23.7799,4683.9202
23.8019,4608.993
23.8239,4543.0689
23.8459,4574.764
23.8679,4561.4302
23.8899,4580.0216
23.9119,4557.8864
23.9339,4524.5693
23.9559,4472.9708
23.9779,4394.9736
23.9999,4441.5226
24.0219,4518.0201
24.0439,4639.4289
24.0659,4505.3618
24.0879,4497.7179
24.1099,4533.9204
24.1319,4620.2913
24.1539,4756.6658
24.1759,4982.0627
24.1979,5453.049
24.2199,5888.9052
24.2419,6259.0095
24.2639,6578.9364
24.2859,6484.8636
24.3079,5955.4547
24.3299,5407.2716
24.3519,5047.919
24.3739,4783.265
24.3959,4694.6049
24.4179,4781.7337
24.4399,4776.3199
24.4619,4731.589
24.4839,4604.0331
24.5059,4427.5868
24.5279,4330.5722
24.5499,4230.6556
24.5719,4251.7303
24.5939,4181.1973
24.6159,4084.8564
24.6379,4068.3481
24.6599,4068.6642
24.6819,4018.2624
24.7039,4022.2405
24.7259,4045.5163
24.7479,4048.5733
24.7699,3986.3184
24.7919,4005.8015
24.8139,3996.9921
24.8359,4000.4381
24.8579,3914.1198
24.8799,3910.0394
24.9019,3923.9941
24.9239,3878.1095
24.9459,3899.9598
24.9679,3928.7434
24.9899,3860.871
25.0119,3748.1394
25.0339,3800.9795
25.0559,3845.5325
25.0779,3806.9085
25.0999,3682.7859
25.1219,3583.3794
25.1439,3583.4769
25.1659,3637.9736
25.1879,3747.4707
25.2099,3665.5377
25.2319,3571.5087
25.2539,3534.1415
25.2759,3576.6186
25.2979,3646.6546
25.3199,3490.3389
25.3419,3555.1552
25.3639,3474.2876
25.3859,3482.002
25.4079,3515.5136
25.4299,3448.475
25.4519,3500.2532
25.4739,3500.5439
25.4959,3556.7449
25.5179,3597.8071
25.5399,3570.5083
25.5619,3765.4515
25.5839,3897.8586
25.6059,4238.8214
25.6279,4388.988
25.6499,4279.3962
25.6719,4188.3099
25.6939,3996.0558
25.7159,3813.2508
25.7379,3606.754
25.7599,3509.4866
25.7819,3438.9173
25.8039,3415.1776
25.8259,3473.9469
25.8479,3469.7694
25.8699,3463.4641
25.8919,3427.0012
25.9139,3349.4032
25.9359,3387.9691
25.9579,3428.0709
25.9799,3449.41
26.0019,3417.813
26.0239,3358.1961
26.0459,3346.7542
26.0679,3339.0816
26.0899,3315.4218
26.1119,3293.9179
26.1339,3283.0492
26.1559,3280.5
26.1779,3295.8811
26.1999,3225.4928
26.2219,3158.2006
26.2439,3136.7959
26.2659,3255.1716
26.2879,3309.0514
26.3099,3206.81
26.3319,3189.5315
26.3539,3234.0886
26.3759,3237.0501
26.3979,3197.5102
26.4199,3222.0871
26.4419,3256.8761
26.4639,3221.3313
26.4859,3152.4099
26.5079,3166.2263
26.5299,3185.5447
26.5519,3228.832
26.5739,3283.8772
26.5959,3239.08
26.6179,3171.9969
26.6399,3227.1069
26.6619,3233.9115
26.6839,3311.0887
26.7059,3311.818
26.7279,3303.7217
26.7499,3239.7786
26.7719,3355.311
26.7939,3295.0686
26.8159,3282.7375
26.8379,3422.2019
26.8599,3403.4807
26.8819,3389.9439
26.9039,3318.3219
26.9259,3312
26.9479,3307.2876
26.9699,3206.7491
26.9919,3340.2899
27.0139,3431.1831
27.0359,3200.9553
27.0579,3257.4884
27.0799,3126.0853
27.1019,3011.7681
27.1239,3073.6323
27.1459,3109.876
27.1679,3071.0191
27.1899,3044.9594
27.2119,2907.8482
27.2339,2978.249
27.2559,3084.3315
27.2779,3126.6664
27.2999,3056.3839
27.3219,3236.3914
27.3439,3261.9823
27.3659,3290.7613
27.3879,3373.9432
27.4099,3292.316
27.4319,3439.4203
27.4539,3415.0335
27.4759,3424.9791
27.4979,3308.7756
27.5199,3193.8375
27.5419,3081.8495
27.5639,3049.8407
27.5859,3056.7287
27.6079,3107.6682
27.6299,3136.7631
27.6519,3192.4539
27.6739,3202.7226
27.6959,3166.0453
27.7179,3205.186
27.7399,3220.9688
27.7619,3183.6707
27.7839,3198.8947
27.8059,3166.5014
27.8279,3159.7213
27.8499,3155.8042
27.8719,3130.6239
27.8939,3151.1368
27.9159,3192.915
27.9379,3211
27.9599,3234.8698
27.9819,3231.992
28.0039,3216.5192
28.0259,3182.0549
28.0479,3237.2393
28.0699,3271.4246
28.0919,3280.8049
28.1139,3252.7668
28.1359,3368.974
28.1579,3410.8622
28.1799,3438.0779
28.2019,3466.6401
28.2239,3431.8534
28.2459,3539.5156
28.2679,3572.4424
28.2899,3575.6136
28.3119,3609.772
28.3339,3568.6724
28.3559,3575.7061
28.3779,3482.2042
28.3999,3467.857
28.4219,3372.3586
28.4439,3248.3857
28.4659,3403.8294
28.4879,3398.2088
28.5099,3380.9243
28.5319,3504.1153
28.5539,3500.6096
28.5759,3478.8117
28.5979,3499.3363
28.6199,3559.1024
28.6419,3602.5556
28.6639,3720.5489
28.6859,3784.1545
28.7079,3936.1965
28.7299,4171.2571
28.7519,4224.0138
28.7739,4322.2637
28.7959,4569.7321
28.8179,4524.6646
28.8399,5026.7537
28.8619,5072.8827
28.8839,5398.265
28.9059,5418.7872
28.9279,5688.5624
28.9499,5901.7672
28.9719,6005.5605
28.9939,5993.9261
29.0159,5934.479
29.0379,5947.0052
29.0599,5613.4347
29.0819,5381.374
29.1039,5098.5647
29.1259,4979.3713
29.1479,4762.7736
29.1699,4442.0282
29.1919,4308.0192
29.2139,4271.689
29.2359,4150.9867
29.2579,4163.826
29.2799,4157.2402
29.3019,4043.9938
29.3239,3931.9645
29.3459,3948.4655
29.3679,4091.7119
29.3899,4060.3566
29.4119,3971.0197
29.4339,3958.165
29.4559,3936.0223
29.4779,3935.505
29.4999,3800.7974
29.5219,3811.0533
29.5439,3889.4986
29.5659,3920.2665
29.5879,3922.9911
29.6099,3845.5296
29.6319,3737.8564
29.6539,3824.4843
29.6759,4060.5772
29.6979,4277.9837
29.7199,4349.9866
29.7419,4189.0909
29.7639,3999.722
29.7859,3942.8879
29.8079,3823.2109
29.8299,3647.2927
29.8519,3507.4791
29.8739,3479.8998
29.8959,3480.4208
29.9179,3411.6458
29.9399,3310.6812
29.9619,3229.5397
29.9839,3198.3363
30.0059,3182.9341
30.0279,3156.44
30.0499,3141.2714
30.0719,3125.2438
30.0939,3008.3841
30.1159,2971.6859
30.1379,3133.9808
30.1599,3006.8087
30.1819,3011.1801
30.2039,2977.8833
30.2259,3071.4339
30.2479,3036.3921
30.2699,2915.8011
30.2919,2903.7822
30.3139,3004.1153
30.3359,3023.3294
30.3579,3016.2193
30.3799,3004.6814
30.4019,2935.8425
30.4239,2918.9243
30.4459,3048.0298
30.4679,3047.5462
30.4899,3004.5397
30.5119,3064.4869
30.5339,3100.2154
30.5559,3204.5288
30.5779,3129.4187
30.5999,3049.3592
30.6219,3084.8182
30.6439,3079.4574
30.6659,3144.2452
30.6879,3312.8073
30.7099,3518.9557
30.7319,3527.8381
30.7539,3701.6365
30.7759,3830.4587
30.7979,3811.0383
30.8199,3813.4582
30.8419,4009.1596
30.8639,4151.8713
30.8859,4469.2892
30.9079,4983.488
30.9299,5632.7065
30.9519,6880.7279
30.9739,8795.0633
30.9959,10934.4557
31.0179,13563.8337
31.0399,14639.6066
31.0619,13118.0196
31.0839,10711.6967
31.1059,9171.8549
31.1279,7441.1065
31.1499,5511.5728
31.1719,4265.63
31.1939,3819.7804
31.2159,3675.0734
31.2379,3587.1034
31.2599,3578.7012
31.2819,3421.7017
31.3039,3298.9025
31.3259,3230.406
31.3479,3170.133
31.3699,3102.9144
31.3919,3095.1033
31.4139,3068.7452
31.4359,3045.7936
31.4579,3081.5536
31.4799,3140.0715
31.5019,3190.4867
31.5239,3248.3872
31.5459,3247.7107
31.5679,3182.5752
31.5899,3094.688
31.6119,2932.8089
31.6339,2835.2625
31.6559,2780.052
31.6779,2837.0033
31.6999,2849.0175
31.7219,2830.0217
31.7439,2832.1588
31.7659,2788.6783
31.7879,2787.3349
31.8099,2846.4338
31.8319,2912.6078
31.8539,2980.8369
31.8759,3032.2184
31.8979,3162.5225
31.9199,3295.9904
31.9419,3575.869
31.9639,3946.0599
31.9859,4229.0114
32.0079,4175.8949
32.0299,3863.7101
32.0519,3731.2137
32.0739,3578.3172
32.0959,3296.1497
32.1179,3056.5452
32.1399,2904.3291
32.1619,2841.0825
32.1839,2762.8444
32.2059,2730.879
32.2279,2885.0506
32.2499,2889.526
32.2719,2919.1751
32.2939,3102.2659
32.3159,3250.6341
32.3379,3264.7227
32.3599,3209.9335
32.3819,3313.664
32.4039,3275.3829
32.4259,3369.369
32.4479,3496.82
32.4699,3679.0551
32.4919,3692.2308
32.5139,3982.9085
32.5359,4339.6542
32.5579,4259.8524
32.5799,4208.9049
32.6019,3932.4528
32.6239,3731.4021
32.6459,3462.5083
32.6679,3061.8495
32.6899,2878.646
32.7119,2842.684
32.7339,2688.2487
32.7559,2654.68
32.7779,2695.3855
32.7999,2730.2975
32.8219,2729.1502
32.8439,2659.3648
32.8659,2683.9166
32.8879,2710.9821
32.9099,2663.775
32.9319,2714.144
32.9539,2704.0856
32.9759,2687.284
32.9979,2619.3263
33.0199,2593.4013
33.0419,2569.1579
33.0639,2482.1727
33.0859,2476.8051
33.1079,2400.1852
33.1299,2352.168
33.1519,2347.8792
33.1739,2355.3283
33.1959,2306.5727
33.2179,2294.7906
33.2399,2265.84
33.2619,2262.011
33.2839,2278.0264
33.3059,2313.7811
33.3279,2380.4931
33.3499,2414.7848
33.3719,2385.8812
33.3939,2338.5251
33.4159,2349.5605
33.4379,2285.7991
33.4599,2254.9027
33.4819,2185.805
33.5039,2184.8901
33.5259,2220.1475
33.5479,2198.8465
33.5699,2160.0323
33.5919,2139.765
33.6139,2165.6668
33.6359,2215.3059
33.6579,2216.7925
33.6799,2130.4997
33.7019,2153.5508
33.7239,2157.0688
33.7459,2201.8291
33.7679,2188.3863
33.7899,2213.1899
33.8119,2208.4542
33.8339,2174.7856
33.8559,2211.1029
33.8779,2240.7257
33.8999,2270.62
33.9219,2289.4199
33.9439,2322.6373
33.9659,2248.574
33.9879,2299.92
34.0099,2273.4837
34.0319,2272.6008
34.0539,2229.2005
34.0759,2222.2257
34.0979,2187.3283
34.1199,2082.4688
34.1419,2125.0827
34.1639,2063.6935
34.1859,2207.963
34.2079,2155.081
34.2299,2134.2056
34.2519,2153.6471
34.2739,2179.8672
34.2959,2152.2907
34.3179,2215.7806
34.3399,2185.5533
34.3619,2248.9048
34.3839,2293.283
34.4059,2215.2744
34.4279,2231.9206
34.4499,2169.2971
34.4719,2234.5398
34.4939,2232.8074
34.5159,2253.987
34.5379,2181.3658
34.5599,2197.0533
34.5819,2254.1701
34.6039,2256.7139
34.6259,2259.3636
34.6479,2202.2217
34.6699,2222.6816
34.6919,2271.2689
34.7139,2269.469
34.7359,2288.2421
34.7579,2337.9911
34.7799,2318.0895
34.8019,2327.6785
34.8239,2309.5795
34.8459,2301.6531
34.8679,2316.3936
34.8899,2284.2479
34.9119,2290.8121
34.9339,2242.6694
34.9559,2194.5836
34.9779,2179.8524
34.9999,2203.3365
35.0219,2250.2006
35.0439,2248.5182
35.0659,2252.177
35.0879,2215.1586
35.1099,2207.6304
35.1319,2227.823
35.1539,2285.2451
35.1759,2284.2913
35.1979,2269.2008
35.2199,2313.9175
35.2419,2334.4907
35.2639,2292.3316
35.2859,2237.9724
35.3079,2198.2506
35.3299,2191.3806
35.3519,2166.3922
35.3739,2165.2488
35.3959,2135.5898
35.4179,2074.8533
35.4399,2119.5617
35.4619,2153.1947
35.4839,2226.8523
35.5059,2293.6324
35.5279,2349.2155
35.5499,2273.4579
35.5719,2227.028
35.5939,2220.4543
35.6159,2161.1134
35.6379,2085.989
35.6599,2090.4337
35.6819,1992.2465
35.7039,2010.0473
35.7259,2073.8763
35.7479,2086.5767
35.7699,2093.9695
35.7919,2072.9129
35.8139,2067.3127
35.8359,2138.7372
35.8579,2169.0089
35.8799,2124.3676
35.9019,2143.6785
35.9239,2203.391
35.9459,2119.7126
35.9679,2007.0371
35.9899,2077.5695
36.0119,2075.2494
36.0339,2112.337
36.0559,2021.7165
36.0779,1921.5528
36.0999,1981.1668
36.1219,2024.4155
36.1439,1882.7666
36.1659,1925.6303
36.1879,1918.1253
36.2099,1899.0416
36.2319,1994.0091
36.2539,1914.761
36.2759,1879.9223
36.2979,1878.1222
36.3199,1948.289
36.3419,1937.6423
36.3639,2015.98
36.3859,2037.805
36.4079,1966.7146
36.4299,2043.238
36.4519,2060.9823
36.4739,2058.4386
36.4959,2078.5183
36.5179,2106.2891
36.5399,2086.5062
36.5619,2017.9841
36.5839,1940.7077
36.6059,1895.2804
36.6279,1932.6495
36.6499,1935.9912
36.6719,1939.6239
36.6939,1942.1358
36.7159,1947.8053
36.7379,1926.7
36.7599,1944.246
36.7819,1960.0588
36.8039,1914.1248
36.8259,1904.767
36.8479,1934.5134
36.8699,2038.8047
36.8919,2107.5412
36.9139,2139.8675
36.9359,2248.9404
36.9579,2368.2353
36.9799,2401.0368
37.0019,2334.9673
37.0239,2234.5346
37.0459,2176.5663
37.0679,2061.4435
37.0899,2045.9963
37.1119,2075.1696
37.1339,2011.4757
37.1559,1956.3431
37.1779,1938.4218
37.1999,1930.9793
37.2219,1879.1847
37.2439,1851.1371
37.2659,1893.54
37.2879,1891.8603
37.3099,1897.8998
37.3319,1845.723
37.3539,1875.1496
37.3759,1970.9177
37.3979,1950.4984
37.4199,1918.9675
37.4419,1911.5841
37.4639,1941.2513
37.4859,1859.2013
37.5079,1828.3672
37.5299,1731.1531
37.5519,1837.2143
37.5739,1836.6607
37.5959,1842.9135
37.6179,1767.1905
37.6399,1830.4427
37.6619,1849.0669
37.6839,1813.32
37.7059,1831.0089
37.7279,1740.3159
37.7499,1763.3895
37.7719,1819.422
37.7939,1862.9744
37.8159,1849.7576
37.8379,1832.8141
37.8599,1826.8934
37.8819,1848.6932
37.9039,1838.3066
37.9259,1768.8486
37.9479,1768.7601
37.9699,1787.6018
37.9919,1794.8014
38.0139,1800.0086
38.0359,1738.5089
38.0579,1752.4839
38.0799,1770.3976
38.1019,1722.8199
38.1239,1699.6522
38.1459,1761.0481
38.1679,1738.9057
38.1899,1731.9829
38.2119,1649.6045
38.2339,1703.8052
38.2559,1700.6049
38.2779,1718.3075
38.2999,1652.6933
38.3219,1684.8173
38.3439,1750.5027
38.3659,1760.8787
38.3879,1706.3843
38.4099,1757.0018
38.4319,1714.3982
38.4539,1708.2675
38.4759,1746.2135
38.4979,1775.2802
38.5199,1772.3363
38.5419,1736.8148
38.5639,1696.7686
38.5859,1724.8889
38.6079,1715.0624
38.6299,1717.8496
38.6519,1730.444
38.6739,1712.2555
38.6959,1698.0708
38.7179,1719.5458
38.7399,1737.7134
38.7619,1751.8555
38.7839,1775.4317
38.8059,1739.9093
38.8279,1766.0224
38.8499,1770.7481
38.8719,1703.725
38.8939,1702.6609
38.9159,1699.7644
38.9379,1724.2607
38.9599,1723.0914
38.9819,1706.6745
39.0039,1722.3054
39.0259,1763.4426
39.0479,1720.3901
39.0699,1708.8673
39.0919,1708.1829
39.1139,1757.7603
39.1359,1706.0897
39.1579,1717.3807
39.1799,1709.3687
39.2019,1664.5702
39.2239,1662.0089
39.2459,1723.3621
39.2679,1700.6793
39.2899,1692.1622
39.3119,1667.3485
39.3339,1677.6598
39.3559,1728.9795
39.3779,1760.8339
39.3999,1741.5196
39.4219,1670.6369
39.4439,1666.7714
39.4659,1706.3158
39.4879,1642.6134
39.5099,1739.8705
39.5319,1709.9463
39.5539,1763.189
39.5759,1751.0319
39.5979,1782.9213
39.6199,1775.4868
39.6419,1797.7228
39.6639,1813.983
39.6859,1735.009
39.7079,1778.0809
39.7299,1717.5104
39.7519,1762.9029
39.7739,1825.9449
39.7959,1809.7227
39.8179,1809.2919
39.8399,1802.893
39.8619,1974.3017
39.8839,1934.1316
39.9059,2016.7266
39.9279,1996.6291
39.9499,1965.909
39.9719,2076.1249
39.9939,2078.3147
40.0159,2086.7521
40.0379,2053.9095
40.0599,2048.4308
40.0819,2095.9856
40.1039,2142.8694
40.1259,2100.1773
40.1479,2158.5353
40.1699,2151.1525
40.1919,2202.16
40.2139,2236.7522
40.2359,2237.4244
40.2579,2298.9424
40.2799,2359.5839
40.3019,2360.2047
40.3239,2395.6765
40.3459,2380.3067
40.3679,2385.801
40.3899,2458.0406
40.4119,2532.1904
40.4339,2533.4011
40.4559,2533.0567
40.4779,2541.4631
40.4999,2545.9544
40.5219,2597.7721
40.5439,2675.7598
40.5659,2715
40.5879,2771.2933
40.6099,2833.9824
40.6319,2869.1506
40.6539,2940.3818
40.6759,2922.9112
40.6979,3047.8435
40.7199,3220.4015
40.7419,3290.6078
40.7639,3342.0307
40.7859,3336.7521
40.8079,3457.3678
40.8299,3463.5455
40.8519,3415.8455
40.8739,3460.9265
40.8959,3455.5397
40.9179,3428.8121
40.9399,3357.6753
40.9619,3276.7933
40.9839,3205.6763
41.0059,3228.4338
41.0279,3082.7192
41.0499,3016.4424
41.0719,2984.9999
41.0939,2859.9209
41.1159,2825.1312
41.1379,2785.581
41.1599,2768.5275
41.1819,2700.7854
41.2039,2808.1995
41.2259,2852.1781
41.2479,2753.4485
41.2699,2760.1593
41.2919,2761.9562
41.3139,2755.2202
41.3359,2836.4088
41.3579,2736.7017
41.3799,2777.9892
41.4019,2775.5574
41.4239,2751.5999
41.4459,2768.1247
41.4679,2704.4735
41.4899,2726.2555
41.5119,2671.467
41.5339,2643.2803
41.5559,2654.6514
41.5779,2642.7679
41.5999,2640.2301
41.6219,2627.2663
41.6439,2587.6452
41.6659,2627.8525
41.6879,2613.9827
41.7099,2594.3067
41.7319,2590.6109
41.7539,2665.9979
41.7759,2629.721
41.7979,2617.7969
41.8199,2754.0936
41.8419,2801.2496
41.8639,2775.6549
41.8859,2807.0819
41.9079,2869.7944
41.9299,2857.4985
41.9519,2890.9974
41.9739,2928.8295
41.9959,2838.0575
42.0179,2855.2244
42.0399,2875.4427
42.0619,2854.2097
42.0839,2802.9073
42.1059,2675.2627
42.1279,2688.994
42.1499,2663.11
42.1719,2627.0534
42.1939,2535.1146
42.2159,2475.064
42.2379,2462.9447
42.2599,2422.5501
42.2819,2387.5141
42.3039,2333.3101
42.3259,2379.614
42.3479,2424.9748
42.3699,2383.1916
42.3919,2358.0044
42.4139,2368.9942
42.4359,2346.254
42.4579,2255.333
42.4799,2347.392
42.5019,2413.9291
42.5239,2409.1564
42.5459,2423.8231
42.5679,2405.2423
42.5899,2442.7436
42.6119,2528.4339
42.6339,2666.1362
42.6559,2778.0829
42.6779,3047.2843
42.6999,3137.7429
42.7219,2978.6601
42.7439,2748.1826
42.7659,2798.4862
42.7879,2814.5353
42.8099,2646.9167
42.8319,2555.5529
42.8539,2418.8343
42.8759,2364.3991
42.8979,2337.6627
42.9199,2311.4896
42.9419,2319.415
42.9639,2329.0133
42.9859,2357.9824
43.0079,2307.9329
43.0299,2417.9778
43.0519,2300.1633
43.0739,2361.483
43.0959,2311.0097
43.1179,2320.7169
43.1399,2304.1922
43.1619,2375.9645
43.1839,2339.9071
43.2059,2332.9233
43.2279,2329.6593
43.2499,2323.1063
43.2719,2359.1286
43.2939,2296.2171
43.3159,2245.1802
43.3379,2330.0069
43.3599,2318.4331
43.3819,2295.0265
43.4039,2263.9221
43.4259,2205.3453
43.4479,2230.2123
43.4699,2194.289
43.4919,2172.1899
43.5139,2195.3953
43.5359,2190.2821
43.5579,2165.2222
43.5799,2183.3542
43.6019,2247.1574
43.6239,2275.9957
43.6459,2280.5308
43.6679,2254.6024
43.6899,2289.5604
43.7119,2294.7214
43.7339,2336.7316
43.7559,2337.0205
43.7779,2301.407
43.7999,2294.506
43.8219,2327.9648
43.8439,2369.6402
43.8659,2393.4347
43.8879,2388.2309
43.9099,2359.1888
43.9319,2384.4028
43.9539,2436.6079
43.9759,2462.7079
43.9979,2442.7669
44.0199,2456.4186
44.0419,2555.9385
44.0639,2644.1476
44.0859,2603.1412
44.1079,2545.1755
44.1299,2533.4985
44.1519,2593.3819
44.1739,2625.0441
44.1959,2531.4587
44.2179,2441.3154
44.2399,2425.8422
44.2619,2443.3108
44.2839,2424.0033
44.3059,2404.1593
44.3279,2383.08
44.3499,2376.3235
44.3719,2398.9868
44.3939,2337.3143
44.4159,2361.8277
44.4379,2401.7051
44.4599,2374.5967
44.4819,2356.0924
44.5039,2356.2522
44.5259,2411.1753
44.5479,2431.8766
44.5699,2505.4605
44.5919,2452.2086
44.6139,2388.517
44.6359,2386.2449
44.6579,2393.8574
44.6799,2480.756
44.7019,2586.4428
44.7239,2580.906
44.7459,2621.4112
44.7679,2670.1152
44.7899,2714.1526
44.8119,2765.9864
44.8339,2730.7255
44.8559,2791.4756
44.8779,2812.2744
44.8999,2859.655
44.9219,2804.8966
44.9439,2965.443
44.9659,2837.6374
44.9879,2907.5834
45.0099,2840.7295
45.0319,2806.1949
45.0539,2843.1814
45.0759,2700.6328
45.0979,2707.8436
45.1199,2685.1314
45.1419,2586.1768
45.1639,2542.1769
45.1859,2504.9083
45.2079,2442.6951
45.2299,2416.0233
45.2519,2351.2277
45.2739,2364.6969
45.2959,2315.9559
45.3179,2341.0953
45.3399,2319.466
45.3619,2295.5398
45.3839,2290.6066
45.4059,2277.4533
45.4279,2256.6517
45.4499,2203.5239
45.4719,2168.8718
45.4939,2180.404
45.5159,2174.3807
45.5379,2190.1327
45.5599,2157.0087
45.5819,2114.2329
45.6039,2172.6522
45.6259,2248.5244
45.6479,2148.0355
45.6699,2175.6303
45.6919,2172.8096
45.7139,2184.3119
45.7359,2213.0973
45.7579,2216.9913
45.7799,2188.565
45.8019,2191.6818
45.8239,2222.2431
45.8459,2238.0475
45.8679,2288.5639
45.8899,2287.3245
45.9119,2183.5121
45.9339,2138.7741
45.9559,2158.9512
45.9779,2227.2453
45.9999,2198.6067
46.0219,2123.8259
46.0439,2201.7783
46.0659,2188.4254
46.0879,2237.9046
46.1099,2367.1105
46.1319,2447.9564
46.1539,2519.1153
46.1759,2561.8064
46.1979,2521.1994
46.2199,2324.0581
46.2419,2243.3392
46.2639,2214.3091
46.2859,2114.6957
46.3079,2054.4143
46.3299,1933.2197
46.3519,1841.2608
46.3739,1832.9548
46.3959,1864.0798
46.4179,1882.4809
46.4399,1870.85
46.4619,1799.5838
46.4839,1723.5868
46.5059,1817.3072
46.5279,1773.9383
46.5499,1775.8319
46.5719,1775.1878
46.5939,1750.2034
46.6159,1766.6136
46.6379,1772.7149
46.6599,1804.5237
46.6819,1749.8818
46.7039,1772.4962
46.7259,1738.2752
46.7479,1732.2923
46.7699,1797.8161
46.7919,1784.5921
46.8139,1703.9587
46.8359,1707.5554
46.8579,1788.4612
46.8799,1797.4234
46.9019,1824.0098
46.9239,1799.9925
46.9459,1773.2834
46.9679,1829.6143
46.9899,1783.6078
47.0119,1826.1286
47.0339,1897.6105
47.0559,1879.9448
47.0779,1956.5749
47.0999,1911.1356
47.1219,2052.8217
47.1439,2217.6064
47.1659,2239.9605
47.1879,2152.2074
47.2099,2008.2476
47.2319,1975.2681
47.2539,2020.2175
47.2759,2020.2739
47.2979,1876.5166
47.3199,1740.7162
47.3419,1721.4072
47.3639,1733.1199
47.3859,1711.7305
47.4079,1677.3126
47.4299,1656.3855
47.4519,1695.1832
47.4739,1739.4689
47.4959,1725.9125
47.5179,1744.8654
47.5399,1732.1856
47.5619,1696.2448
47.5839,1683.5702
47.6059,1668.646
47.6279,1659.5354
47.6499,1636.699
47.6719,1673.1479
47.6939,1676.6339
47.7159,1673.076
47.7379,1664.9732
47.7599,1679.0155
47.7819,1665.8493
47.8039,1648.6432
47.8259,1657.5732
47.8479,1685.7111
47.8699,1669.28
47.8919,1715.287
47.9139,1704.1226
47.9359,1691.0266
47.9579,1718.0935
47.9799,1731.4636
48.0019,1680.8286
48.0239,1702.7559
48.0459,1702.4896
48.0679,1666.3243
48.0899,1665.8044
48.1119,1701.1919
48.1339,1673.6193
48.1559,1737.3592
48.1779,1787.5272
48.1999,1750.1399
48.2219,1764.0099
48.2439,1711.865
48.2659,1716.3452
48.2879,1763.1049
48.3099,1778.7709
48.3319,1736.4202
48.3539,1682.3095
48.3759,1674.2581
48.3979,1752.7319
48.4199,1732.7206
48.4419,1723.3933
48.4639,1670.0278
48.4859,1630.934
48.5079,1529.2533
48.5299,1575.0002
48.5519,1638.8279
48.5739,1626.9669
48.5959,1702.013
48.6179,1621.0499
48.6399,1570.5146
48.6619,1668.6725
48.6839,1655.0975
48.7059,1687.41
48.7279,1681.2256
48.7499,1679.9166
48.7719,1712.0255
48.7939,1693.4425
48.8159,1701.5926
48.8379,1715.1688
48.8599,1667.5773
48.8819,1794.3933
48.9039,1778.0302
48.9259,1750.2662
48.9479,1860.0059
48.9699,1749.8377
48.9919,1745.6152
49.0139,1775.7551
49.0359,1728.8358
49.0579,1660.3189
49.0799,1701.8812
49.1019,1642.0413
49.1239,1632.3672
49.1459,1640.4024
49.1679,1696.4062
49.1899,1672.7518
49.2119,1609.9549
49.2339,1636.1131
49.2559,1623.314
49.2779,1594.6716
49.2999,1598.7208
49.3219,1597.4601
49.3439,1588.907
49.3659,1577.4611
49.3879,1570.9587
49.4099,1568.0668
49.4319,1579.622
49.4539,1578.9969
49.4759,1597.8252
49.4979,1602.0411
49.5199,1584.4248
49.5419,1617.4004
49.5639,1639.4223
49.5859,1670.2686
49.6079,1712.477
49.6299,1786.8411
49.6519,1878.282
49.6739,1913.8348
49.6959,2007.8516
49.7179,2093.5046
49.7399,2049.1309
49.7619,1919.8844
49.7839,1870.7964
49.8059,1864.0098
49.8279,1817.7643
49.8499,1781.8259
49.8719,1720.2677
49.8939,1679.1385
49.9159,1589.1456
49.9379,1546.9075
49.9599,1560.3752
49.9819,1653.4222
50.0039,1610.5902
50.0259,1555.2102
50.0479,1619.9354
50.0699,1567.6113
50.0919,1581.4347
50.1139,1569.0707
50.1359,1616.3488
50.1579,1553.7844
50.1799,1642.8706
50.2019,1527.6957
50.2239,1475.4649
50.2459,1498.8851
50.2679,1545.6369
50.2899,1502.752
50.3119,1461.1813
50.3339,1491.6773
50.3559,1451.4839
50.3779,1474.6106
50.3999,1462.821
50.4219,1458.3156
50.4439,1450.8822
50.4659,1500.9596
50.4879,1473.1168
50.5099,1434.0711
50.5319,1489.3216
50.5539,1406.1164
50.5759,1480.4292
50.5979,1478.4945
50.6199,1455.1736
50.6419,1474.6758
50.6639,1508.1646
50.6859,1405.612
50.7079,1466.075
50.7299,1428.0404
50.7519,1444.5172
50.7739,1438.4336
50.7959,1433.2454
50.8179,1460.7306
50.8399,1503.5093
50.8619,1556.4973
50.8839,1499.1213
50.9059,1480.0354
50.9279,1482.1151
50.9499,1484.8475
50.9719,1485.4869
50.9939,1519.766
51.0159,1529.1111
51.0379,1497.0911
51.0599,1471.7702
51.0819,1485.4737
51.1039,1470.6551
51.1259,1519.9146
51.1479,1492.5723
51.1699,1415.4777
51.1919,1427.6438
51.2139,1450.0117
51.2359,1484.5741
51.2579,1493.3616
51.2799,1471.1913
51.3019,1489.3275
51.3239,1468.3907
51.3459,1448.8663
51.3679,1437.5324
51.3899,1448.9244
51.4119,1452.6278
51.4339,1426.7049
51.4559,1458.7953
51.4779,1464.5899
51.4999,1475.7568
51.5219,1420.5129
51.5439,1444.7619
51.5659,1495.3659
51.5879,1437.2794
51.6099,1451.5243
51.6319,1435.0131
51.6539,1455.0493
51.6759,1444.7865
51.6979,1436.4602
51.7199,1426.6135
51.7419,1509.8057
51.7639,1492.4674
51.7859,1472.352
51.8079,1450.8785
51.8299,1495.9324
51.8519,1442.5154
51.8739,1425.054
51.8959,1460.1019
51.9179,1364.1107
51.9399,1367.387
51.9619,1397.4397
51.9839,1498.5481
52.0059,1406.149
52.0279,1473.4797
52.0499,1438.3371
52.0719,1484.9643
52.0939,1495.9115
52.1159,1402.9518
52.1379,1389.8183
52.1599,1439.3183
52.1819,1385.3544
52.2039,1487.1061
52.2259,1449.8848
52.2479,1408.4736
52.2699,1448.2103
52.2919,1436.8189
52.3139,1491.4108
52.3359,1448.2527
52.3579,1457.071
52.3799,1499.7925
52.4019,1494.4691
52.4239,1494.6282
52.4459,1463.7562
52.4679,1477.1986
52.4899,1455.3803
52.5119,1434.4241
52.5339,1497.526
52.5559,1498.7419
52.5779,1507
52.5999,1494.403
52.6219,1458.7109
52.6439,1456.8796
52.6659,1463.8249
52.6879,1479.0268
52.7099,1525.6943
52.7319,1533.9572
52.7539,1507.8876
52.7759,1474.6766
52.7979,1477.9281
52.8199,1485.1699
52.8419,1509.5927
52.8639,1504.9097
52.8859,1537.6018
52.9079,1553.4859
52.9299,1626.2768
52.9519,1643.6559
52.9739,1571.5505
52.9959,1615.8958
53.0179,1703.3689
53.0399,1717.0869
53.0619,1669.2308
53.0839,1687.7039
53.1059,1722.0953
53.1279,1717.8442
53.1499,1770.5579
53.1719,1765.4609
53.1939,1842.9987
53.2159,1924.36
53.2379,1957.2116
53.2599,2001.5587
53.2819,2074.3189
53.3039,2114.6746
53.3259,2030.3121
53.3479,1950.6458
53.3699,1995.9551
53.3919,1914.551
53.4139,1961.62
53.4359,1922.3909
53.4579,1854.0676
53.4799,1807.0839
53.5019,1794.6667
53.5239,1792.4199
53.5459,1761.5102
53.5679,1754.8147
53.5899,1759.9617
53.6119,1760.1608
53.6339,1800.0218
53.6559,1845.8719
53.6779,1964.1421
53.6999,2051.0721
53.7219,1959.1225
53.7439,1916.0456
53.7659,1799.1912
53.7879,1805.001
53.8099,1711.9642
53.8319,1881.1487
53.8539,1702.8566
53.8759,1666.4246
53.8979,1669.9961
53.9199,1546.0407
53.9419,1635.9851
53.9639,1594.1077
53.9859,1593.6752
54.0079,1528.3629
54.0299,1533.3451
54.0519,1525
54.0739,1518.867
54.0959,1466.1663
54.1179,1508.7791
54.1399,1573.6107
54.1619,1570.8138
54.1839,1497.1761
54.2059,1514.5133
54.2279,1512.4153
54.2499,1490.8259
54.2719,1489.1195
54.2939,1483.8197
54.3159,1447.4178
54.3379,1511.1059
54.3599,1467.2283
54.3819,1483.4561
54.4039,1458.2108
54.4259,1460.4063
54.4479,1503.5763
54.4699,1489.2296
54.4919,1434.5366
54.5139,1489.2175
54.5359,1487.9656
54.5579,1426.7228
54.5799,1422.138
54.6019,1422.8174
54.6239,1460.5029
54.6459,1447.5831
54.6679,1471.4648
54.6899,1498.2605
54.7119,1478.7477
54.7339,1454.6784
54.7559,1454.0458
54.7779,1484.1359
54.7999,1474.3257
54.8219,1467.1555
54.8439,1512.2667
54.8659,1476.2385
54.8879,1440.803
54.9099,1481.9137
54.9319,1501.5398
54.9539,1474.8514
54.9759,1495.8808
54.9979,1486.0263
55.0199,1423.9447
55.0419,1419.7828
55.0639,1394.575
55.0859,1426.0308
55.1079,1437.8244
55.1299,1441.3098
55.1519,1414.5175
55.1739,1411.6785
55.1959,1387.0323
55.2179,1395.8851
55.2399,1394.7635
55.2619,1420.1594
55.2839,1421.2664
55.3059,1488.137
55.3279,1521.3629
55.3499,1486.1089
55.3719,1388.1677
55.3939,1459.1598
55.4159,1403.302
55.4379,1438.9855
55.4599,1379.0085
55.4819,1410.5469
55.5039,1471.5686
55.5259,1393.504
55.5479,1393.2876
55.5699,1508.7763
55.5919,1398.821
55.6139,1437.013
55.6359,1440.94
55.6579,1429.2123
55.6799,1407.1189
55.7019,1565.3319
55.7239,1468.8274
55.7459,1457.3251
55.7679,1376.094
55.7899,1400.7847
55.8119,1412.8382
55.8339,1397.3225
55.8559,1397.9335
55.8779,1364.2122
55.8999,1348.686
55.9219,1464.7844
55.9439,1405.1313
55.9659,1415.2212
55.9879,1393.1665
56.0099,1365.2637
56.0319,1398.5901
56.0539,1412.7079
56.0759,1395.2375
56.0979,1406.3156
56.1199,1416.2613
56.1419,1441.6065
56.1639,1436.1849
56.1859,1510.7578
56.2079,1463.502
56.2299,1482.1318
56.2519,1491.8009
56.2739,1498.7524
56.2959,1499.6265
56.3179,1480.3278
56.3399,1538.4465
56.3619,1538.0972
56.3839,1499.9143
56.4059,1472.3942
56.4279,1459.9499
56.4499,1489.5135
56.4719,1517.8146
56.4939,1482.6457
56.5159,1459.158
56.5379,1449.5632
56.5599,1418.4862
56.5819,1443.4279
56.6039,1438.8832
56.6259,1425.124
56.6479,1412.8361
56.6699,1384.4277
56.6919,1367.8003
56.7139,1399.0593
56.7359,1440.1068
56.7579,1379.9582
56.7799,1363.2391
56.8019,1313.6416
56.8239,1323.3322
56.8459,1311.6546
56.8679,1333.107
56.8899,1411.6601
56.9119,1385.7342
56.9339,1346.4011
56.9559,1346.3673
56.9779,1357.6372
56.9999,1295.1147
57.0219,1326.8263
57.0439,1280.9288
57.0659,1306.9049
57.0879,1324.9061
57.1099,1277.5956
57.1319,1268.2232
57.1539,1318.0858
57.1759,1361.3851
57.1979,1324.1807
57.2199,1301.4655
57.2419,1335.425
57.2639,1309.3361
57.2859,1381.6985
57.3079,1348.5057
57.3299,1354.9971
57.3519,1291.9186
57.3739,1354.7525
57.3959,1329.4477
57.4179,1368.5548
57.4399,1353.376
57.4619,1290.6192
57.4839,1302.9581
57.5059,1286.6344
57.5279,1329.8654
57.5499,1359.4266
57.5719,1322.0842
57.5939,1339.5711
57.6159,1306.7435
57.6379,1338.23
57.6599,1322.7214
57.6819,1344.286
57.7039,1335.4119
57.7259,1423.3766
57.7479,1424.0524
57.7699,1371.8612
57.7919,1341.9815
57.8139,1376.4946
57.8359,1380.6106
57.8579,1374.1712
57.8799,1399.8695
57.9019,1419.6809
57.9239,1343.6419
57.9459,1394.3875
57.9679,1379.1692
57.9899,1331.5352
58.0119,1364.3174
58.0339,1349.3454
58.0559,1377.695
58.0779,1351.6538
58.0999,1339.1873
58.1219,1326.9754
58.1439,1342.4988
58.1659,1344.501
58.1879,1304.3508
58.2099,1344.0807
58.2319,1351.6814
58.2539,1355.2979
58.2759,1337.8676
58.2979,1306.2271
58.3199,1277.28
58.3419,1283.9088
58.3639,1315
58.3859,1288.6674
58.4079,1266.1121
58.4299,1285.9913
58.4519,1335.7692
58.4739,1331.6664
58.4959,1324.8748
58.5179,1366.6865
58.5399,1391.3319
58.5619,1386.5339
58.5839,1383.4681
58.6059,1408.2843
58.6279,1396.3361
58.6499,1408.8094
58.6719,1405.0132
58.6939,1425.8527
58.7159,1438.6185
58.7379,1440.8122
58.7599,1428.4085
58.7819,1431.004
58.8039,1485.7948
58.8259,1564.9296
58.8479,1744.0177
58.8699,2026.0397
58.8919,2420.4724
58.9139,2727.5784
58.9359,3030.17
58.9579,2955.6718
58.9799,2487.0782
59.0019,2105.1597
59.0239,2000.367
59.0459,2090.8894
59.0679,2199.0664
59.0899,2087.7398
59.1119,1884.3039
59.1339,1596.1068
59.1559,1455.9906
59.1779,1395.8119
59.1999,1404.534
59.2219,1319.3359
59.2439,1310.0998
59.2659,1293.0334
59.2879,1234.8263
59.3099,1314.7465
59.3319,1347.8728
59.3539,1371.9528
59.3759,1371.0595
59.3979,1374.1535
59.4199,1411.3324
59.4419,1510.3981
59.4639,1480.6758
59.4859,1434.702
59.5079,1422.5301
59.5299,1448.3617
59.5519,1433.155
59.5739,1459.8759
59.5959,1431.6416
59.6179,1449.5135
59.6399,1461.5381
59.6619,1351.9638
59.6839,1374.5587
59.7059,1311.7088
59.7279,1285.7438
59.7499,1307.2806
59.7719,1346.6644
59.7939,1299.3256
59.8159,1294.1014
59.8379,1272.1725
59.8599,1353.8247
59.8819,1372.6016
59.9039,1351.5075
59.9259,1337.2917
59.9479,1284.8628
59.9699,1303.7416
59.9919,1340.0364
60.0139,1323.9555
60.0359,1310.9854
60.0579,1317.3794
60.0799,1282.3214
60.1019,1293.9757
60.1239,1346.9599
60.1459,1349.4541
60.1679,1336.5375
60.1899,1324.9152
60.2119,1308.1593
60.2339,1289.9851
60.2559,1276.9602
60.2779,1310.8616
60.2999,1298.3055
60.3219,1236.7195
60.3439,1305.6467
60.3659,1287.7506
60.3879,1233.8756
60.4099,1267.0445
60.4319,1210.3633
60.4539,1229.2197
60.4759,1218.2092
60.4979,1207.6087
60.5199,1169.3837
60.5419,1229.912
60.5639,1158.5809
60.5859,1100.6125
60.6079,1132.1374
60.6299,1211.1273
60.6519,1190.2918
60.6739,1210.1713
60.6959,1179.1522
60.7179,1145.5318
60.7399,1142.4646
60.7619,1155.5074
60.7839,1130.9241
60.8059,1169.779
60.8279,1173.5172
60.8499,1159.7551
60.8719,1176.801
60.8939,1218.9333
60.9159,1163.2086
60.9379,1158.9322
60.9599,1125.9443
60.9819,1132.6107
61.0039,1149.4735
61.0259,1107.8031
61.0479,1148.7318
61.0699,1130.124
61.0919,1150.9454
61.1139,1149.4329
61.1359,1193.2033
61.1579,1150.5219
61.1799,1107.1243
61.2019,1097.1506
61.2239,1129.4473
61.2459,1197.163
61.2679,1151.4279
61.2899,1175.7253
61.3119,1123.7241
61.3339,1195.1359
61.3559,1228.8343
61.3779,1222.8386
61.3999,1193.6724
61.4219,1159.8591
61.4439,1121.3713
61.4659,1153.72
61.4879,1197.9577
61.5099,1204.7759
61.5319,1221.0163
61.5539,1236.9342
61.5759,1231.6104
61.5979,1232.4783
61.6199,1293.0605
61.6419,1291.6509
61.6639,1286.2447
61.6859,1271.5998
61.7079,1257.405
61.7299,1231.3805
61.7519,1211.166
61.7739,1233.9218
61.7959,1286.5928
61.8179,1267.524
61.8399,1235.5037
61.8619,1212.5871
61.8839,1212.3933
61.9059,1208.4189
61.9279,1226.0134
61.9499,1208.6693
61.9719,1198.4722
61.9939,1190.6723
62.0159,1166.2754
62.0379,1231.2316
62.0599,1219.9508
62.0819,1229.8432
62.1039,1258.8268
62.1259,1238.466
62.1479,1247.8123
62.1699,1240.0067
62.1919,1243.5532
62.2139,1247.4847
62.2359,1219.3641
62.2579,1211.357
62.2799,1203.0894
62.3019,1273.6682
62.3239,1288.6311
62.3459,1240.748
62.3679,1211.1095
62.3899,1226.8143
62.4119,1245.3349
62.4339,1273.5744
62.4559,1298.9455
62.4779,1262.7883
62.4999,1254.4145
62.5219,1235.3893
62.5439,1236.8058
62.5659,1255.6756
62.5879,1287.1816
62.6099,1343.1104
62.6319,1361.5428
62.6539,1294.4038
62.6759,1307.6756
62.6979,1369.5038
62.7199,1317.4805
62.7419,1275.399
62.7639,1329.1866
62.7859,1298.2388
62.8079,1315.5611
62.8299,1323.9135
62.8519,1302.0474
62.8739,1332.9534
62.8959,1261.4402
62.9179,1386.8934
62.9399,1311.3296
62.9619,1352.105
62.9839,1308.6991
63.0059,1305.2626
63.0279,1314.1881
63.0499,1362.2652
63.0719,1305.7268
63.0939,1335.8563
63.1159,1316.7449
63.1379,1324.5478
63.1599,1349.0744
63.1819,1375.9557
63.2039,1362.8391
63.2259,1347.6834
63.2479,1355.7818
63.2699,1373.7505
63.2919,1409.527
63.3139,1397.3273
63.3359,1384.2719
63.3579,1394.6619
63.3799,1418.1106
63.4019,1432.9816
63.4239,1475.4947
63.4459,1482.3333
63.4679,1459.3729
63.4899,1452.4861
63.5119,1471.8639
63.5339,1451.9227
63.5559,1468.9697
63.5779,1443.0976
63.5999,1498.195
63.6219,1505.8983
63.6439,1477.4264
63.6659,1478.3813
63.6879,1501.3854
63.7099,1530.4393
63.7319,1528.6699
63.7539,1531.2672
63.7759,1548.8278
63.7979,1565.9202
63.8199,1530.5623
63.8419,1521.6549
63.8639,1534.3693
63.8859,1563.7455
63.9079,1587.506
63.9299,1581.1327
63.9519,1576.4641
63.9739,1638.9474
63.9959,1639.7662
64.0179,1635.0168
64.0399,1621.7137
64.0619,1621.8398
64.0839,1641.4854
64.1059,1671.1683
64.1279,1651.7112
64.1499,1653.8064
64.1719,1628.7033
64.1939,1620.2537
64.2159,1624.8176
64.2379,1678.7555
64.2599,1600.2152
64.2819,1660.6426
64.3039,1620.2356
64.3259,1527.6269
64.3479,1536.9554
64.3699,1543.6991
64.3919,1581.9216
64.4139,1598.4897
64.4359,1589.3628
64.4579,1635.6325
64.4799,1687.4619
64.5019,1665.224
64.5239,1660.1932
64.5459,1650.5211
64.5679,1705.6906
64.5899,1733.2843
64.6119,1818.6897
64.6339,1874.838
64.6559,1903.2898
64.6779,2039.8053
64.6999,2028.5572
64.7219,1959.2773
64.7439,1958.0958
64.7659,1845.4424
64.7879,1822.8396
64.8099,1813.0214
64.8319,1938.6781
64.8539,1877.88
64.8759,1874.4871
64.8979,1857.4218
64.9199,1856.3526
64.9419,1856.4844
64.9639,1801.7126
64.9859,1828.3195
65.0079,1814.03
65.0299,1812.7609
65.0519,1785.4683
65.0739,1775.2157
65.0959,1812.8625
65.1179,1766.896
65.1399,1776.096
65.1619,1748.1065
65.1839,1777.0878
65.2059,1776.2454
65.2279,1824.3182
65.2499,1793.0602
65.2719,1803.3763
65.2939,1763.8289
65.3159,1723.143
65.3379,1656.0748
65.3599,1688.1596
65.3819,1713.2113
65.4039,1692.4459
65.4259,1659.9466
65.4479,1647.8803
65.4699,1720.7321
65.4919,1699.8222
65.5139,1617.4435
65.5359,1625.5109
65.5579,1611.4954
65.5799,1604.5626
65.6019,1637.5902
65.6239,1626.1915
65.6459,1584.6891
65.6679,1595.5641
65.6899,1559.5807
65.7119,1547.7706
65.7339,1557.6607
65.7559,1556.1195
65.7779,1569.4514
65.7999,1566.2728
65.8219,1580.1624
65.8439,1544.9048
65.8659,1555.2116
65.8879,1558.14
65.9099,1505.4343
65.9319,1506.2224
65.9539,1514.7345
65.9759,1500.0638
65.9979,1457.045
66.0199,1448.857
66.0419,1480.5636
66.0639,1425.3221
66.0859,1427.5901
66.1079,1459.8989
66.1299,1451.0088
66.1519,1431.0972
66.1739,1456.2952
66.1959,1392.2921
66.2179,1455.2069
66.2399,1454.2684
66.2619,1480.1978
66.2839,1480.2433
66.3059,1353.3602
66.3279,1448.7248
66.3499,1423.46
66.3719,1423.9361
66.3939,1397.5308
66.4159,1380.1253
66.4379,1476.8524
66.4599,1447.6713
66.4819,1484.5543
66.5039,1440.0092
66.5259,1503.97
66.5479,1417.2612
66.5699,1433.8986
66.5919,1426.8214
66.6139,1489.8528
66.6359,1522.7567
66.6579,1455.3236
66.6799,1480.6623
66.7019,1493.0372
66.7239,1466.8824
66.7459,1454.3188
66.7679,1480.8856
66.7899,1427.7905
66.8119,1416.1562
66.8339,1410.4498
66.8559,1474.8539
66.8779,1479.5342
66.8999,1515.8412
66.9219,1499.2493
66.9439,1437.3981
66.9659,1434.6973
66.9879,1438.4535
67.0099,1383.1796
67.0319,1372.9631
67.0539,1425.4621
67.0759,1417.3614
67.0979,1407.5377
67.1199,1401.9643
67.1419,1423.7876
67.1639,1386.1263
67.1859,1361.9395
67.2079,1407.084
67.2299,1392.1572
67.2519,1347.362
67.2739,1344.8706
67.2959,1352.0695
67.3179,1342.8213
67.3399,1353.7344
67.3619,1331.1828
67.3839,1303.196
67.4059,1297.006
67.4279,1347.7354
67.4499,1359.4688
67.4719,1344.5826
67.4939,1328.9379
67.5159,1344.7161
67.5379,1307.4863
67.5599,1307.4836
67.5819,1300.5937
67.6039,1294.5325
67.6259,1320.3964
67.6479,1317.3814
67.6699,1305.4542
67.6919,1310.7606
67.7139,1317.589
67.7359,1281.7652
67.7579,1293.2411
67.7799,1240.8713
67.8019,1255.5135
67.8239,1252.7526
67.8459,1277.4958
67.8679,1301.8806
67.8899,1253.7676
67.9119,1259.3969
67.9339,1260.4779
67.9559,1243.7929
67.9779,1273.0159
67.9999,1304.3276
68.0219,1318.6785
68.0439,1347.0651
68.0659,1272.2709
68.0879,1234.4172
68.1099,1291.1596
68.1319,1254.0927
68.1539,1225.0185
68.1759,1219.1204
68.1979,1263.4693
68.2199,1262.9896
68.2419,1242.0895
68.2639,1249.4765
68.2859,1268.8595
68.3079,1287.4741
68.3299,1221.6727
68.3519,1247.5197
68.3739,1251.2309
68.3959,1222.8894
68.4179,1225.8886
68.4399,1190.3065
68.4619,1229.0856
68.4839,1234.2241
68.5059,1229.4495
68.5279,1256.9646
68.5499,1256.067
68.5719,1270.2541
68.5939,1249.345
68.6159,1226.2261
68.6379,1236.3819
68.6599,1273.4967
68.6819,1220.1553
68.7039,1229.0667
68.7259,1256.3094
68.7479,1230.5702
68.7699,1280.1534
68.7919,1279.2006
68.8139,1283.6735
68.8359,1280.7232
68.8579,1279.3598
68.8799,1235.1848
68.9019,1189.2608
68.9239,1224.2391
68.9459,1220.101
68.9679,1197.6943
68.9899,1225.0887
69.0119,1243.2413
69.0339,1216.8788
69.0559,1237.4828
69.0779,1252.9308
69.0999,1224.8585
69.1219,1244.0886
69.1439,1228.1639
69.1659,1212.9932
69.1879,1238.3217
69.2099,1257.9823
69.2319,1262
69.2539,1236.5602
69.2759,1210.9144
69.2979,1243.371
69.3199,1280.916
69.3419,1303.4288
69.3639,1292.1714
69.3859,1272.525
69.4079,1277.299
69.4299,1277.941
69.4519,1278.7552
69.4739,1277.1957
69.4959,1251.7451
69.5179,1205.7165
69.5399,1245.8711
69.5619,1261.999
69.5839,1228.2107
69.6059,1204.053
69.6279,1212.594
69.6499,1232.7877
69.6719,1221.5776
69.6939,1211.408
69.7159,1220.0355
69.7379,1183.8139
69.7599,1186.4696
69.7819,1210.7022
69.8039,1236.1363
69.8259,1184.2376
69.8479,1218.9516
69.8699,1253.4368
69.8919,1214.8769
69.9139,1142.8757
69.9359,1241.6343
69.9579,1182.8531
69.9799,1311.8429
70.0019,1264.1964
70.0239,1289.8578
70.0459,1271.7401
70.0679,1213.6143
70.0899,1260.5476
70.1119,1254.9119
70.1339,1315.6487
70.1559,1265.3344
70.1779,1208.6081
70.1999,1274.774
70.2219,1302.0454
70.2439,1310.9962
70.2659,1178.1733
70.2879,1221.546
70.3099,1263.7259
70.3319,1280.2193
70.3539,1200.3381
70.3759,1198.9414
70.3979,1263.6483
70.4199,1308.4289
70.4419,1304.1174
70.4639,1222.2374
70.4859,1230.9255
70.5079,1258.7699
70.5299,1256.2016
70.5519,1287.0545
70.5739,1315.6957
70.5959,1256.7693
70.6179,1259.6502
70.6399,1292.1151
70.6619,1278.8542
70.6839,1292.743
70.7059,1312.8223
70.7279,1261.9291
70.7499,1328.6984
70.7719,1371.214
70.7939,1381.5446
70.8159,1393.6404
70.8379,1480.2072
70.8599,1611.805
70.8819,1768.764
70.9039,1981.5013
70.9259,2164.0125
70.9479,2109.1153
70.9699,1876.686
70.9919,1680.3295
71.0139,1600.4552
71.0359,1586.115
71.0579,1595.065
71.0799,1676.2017
71.1019,1720.3362
71.1239,1706.1646
71.1459,1568.1473
71.1679,1502.7125
71.1899,1373.403
71.2119,1338.2761
71.2339,1311.2002
71.2559,1307.7199
71.2779,1315.709
71.2999,1327.5399
71.3219,1309.9939
71.3439,1303.4917
71.3659,1321.4367
71.3879,1341.6378
71.4099,1252.076
71.4319,1295.1642
71.4539,1292.0107
71.4759,1267.3302
71.4979,1285.4603
71.5199,1305.1948
71.5419,1337.1192
71.5639,1305.513
71.5859,1292.0707
71.6079,1289.2134
71.6299,1285.3776
71.6519,1288.6716
71.6739,1317.836
71.6959,1250.2562
71.7179,1288.9649
71.7399,1306.473
71.7619,1318.7523
71.7839,1264.4594
71.8059,1305.9606
71.8279,1295.9026
71.8499,1287.2905
71.8719,1200.1423
71.8939,1317.7607
71.9159,1262.7465
71.9379,1301.8446
71.9599,1300.5399
71.9819,1306.9204
72.0039,1310.074
72.0259,1274.2833
72.0479,1296.8179
72.0699,1337.94
72.0919,1324.4688
72.1139,1290.7524
72.1359,1316.2012
72.1579,1326.7905
72.1799,1311.4454
72.2019,1314.61
72.2239,1326.1792
72.2459,1250.4745
72.2679,1332.6205
72.2899,1359.4783
72.3119,1406.9871
72.3339,1399.9892
72.3559,1409.4897
72.3779,1418.5586
72.3999,1414.9187
72.4219,1392.6519
72.4439,1378.3056
72.4659,1376.7329
72.4879,1417.3098
72.5099,1416.233
72.5319,1431.1153
72.5539,1468.062
72.5759,1442.0065
72.5979,1408.8212
72.6199,1466.4121
72.6419,1526.594
72.6639,1506.4525
72.6859,1507.2304
72.7079,1495.3388
72.7299,1471.6855
72.7519,1535.3884
72.7739,1550.3075
72.7959,1479.5379
72.8179,1515.5819
72.8399,1566.1838
72.8619,1524.5837
72.8839,1490.5132
72.9059,1501.6993
72.9279,1494.3381
72.9499,1487.8584
72.9719,1469.6837
72.9939,1580.5133
73.0159,1557.3666
73.0379,1537.3827
73.0599,1560.0906
73.0819,1594.6728
73.1039,1621.3113
73.1259,1615.879
73.1479,1587.1281
73.1699,1657.1304
73.1919,1624.9642
73.2139,1627.183
73.2359,1675.3543
73.2579,1670.5122
73.2799,1729.8854
73.3019,1688.4175
73.3239,1686.5202
73.3459,1685.4071
73.3679,1688.5064
73.3899,1725.4447
73.4119,1749.8261
73.4339,1736.4709
73.4559,1776.6595
73.4779,1767.8052
73.4999,1721.3832
73.5219,1855.695
73.5439,1858.0752
73.5659,1878.7317
73.5879,1875.0019
73.6099,1885.2041
73.6319,1984.8193
73.6539,1937.3275
73.6759,1950.4297
73.6979,2040.3533
73.7199,2091.3407
73.7419,2080.0912
73.7639,2051.0547
73.7859,2068.8987
73.8079,2066.4885
73.8299,2108.0155
73.8519,2062.6224
73.8739,2001.0891
73.8959,2089.2602
73.9179,2078.8891
73.9399,1959.6651
73.9619,1946.4169
73.9839,1922.3926
74.0059,1832.9322
74.0279,1842.8694
74.0499,1862.9695
74.0719,1827.8798
74.0939,1747.773
74.1159,1745.2685
74.1379,1686.9555
74.1599,1651.1512
74.1819,1601.4902
74.2039,1577.2114
74.2259,1611.9987
74.2479,1569.5811
74.2699,1537.2651
74.2919,1503.6781
74.3139,1500.226
74.3359,1474.5737
74.3579,1446.3744
74.3799,1433.5857
74.4019,1439.7344
74.4239,1412.8691
74.4459,1364.0428
74.4679,1367.2571
74.4899,1373.2483
74.5119,1356.0823
74.5339,1363.9674
74.5559,1378.2338
74.5779,1352.1332
74.5999,1356.2379
74.6219,1367.7982
74.6439,1339.4419
74.6659,1354.6728
74.6879,1305.2949
74.7099,1309.0978
74.7319,1304.7062
74.7539,1328.6602
74.7759,1369.5705
74.7979,1358.7343
74.8199,1347.6244
74.8419,1344.1996
74.8639,1330.1769
74.8859,1322.8259
74.9079,1338.2135
74.9299,1312.5307
74.9519,1292.0997
74.9739,1306.7986
74.9959,1287.6296
75.0179,1338.4871
75.0399,1300.303
75.0619,1259.1945
75.0839,1293.93
75.1059,1274.8769
75.1279,1294.9367
75.1499,1320.8045
75.1719,1325.7689
75.1939,1298.2004
75.2159,1245.0021
75.2379,1310.0221
75.2599,1294.5264
75.2819,1322.3237
75.3039,1255.9666
75.3259,1318.9945
75.3479,1308.2236
75.3699,1298.0491
75.3919,1326.0664
75.4139,1334.9016
75.4359,1329.0092
75.4579,1298.5132
75.4799,1287.7738
75.5019,1284.2065
75.5239,1289.3527
75.5459,1316.4671
75.5679,1327.0254
75.5899,1369.74
75.6119,1314.1237
75.6339,1348.4412
75.6559,1311.1682
75.6779,1335.203
75.6999,1397.7946
75.7219,1409.0679
75.7439,1407.9214
75.7659,1353.2163
75.7879,1349.199
75.8099,1327.7
75.8319,1333.5349
75.8539,1387.2564
75.8759,1363.1113
75.8979,1369.0841
75.9199,1332.049
75.9419,1384.1811
75.9639,1433.0601
75.9859,1463.7546
76.0079,1398.2969
76.0299,1388.6321
76.0519,1352.5616
76.0739,1339.9158
76.0959,1317.0979
76.1179,1270.2985
76.1399,1311.1384
76.1619,1297.9392
76.1839,1295.3552
76.2059,1279.6215
76.2279,1288.7955
76.2499,1261.8492
76.2719,1230.4971
76.2939,1246.3168
76.3159,1227.0129
76.3379,1164.8462
76.3599,1216.4871
76.3819,1245.5689
76.4039,1199.8169
76.4259,1154.2366
76.4479,1163.8543
76.4699,1165.8818
76.4919,1172.2799
76.5139,1180.8289
76.5359,1179
76.5579,1189.5409
76.5799,1188.289
76.6019,1169.2821
76.6239,1126.5203
76.6459,1149.9384
76.6679,1151.5948
76.6899,1110.8375
76.7119,1132.2628
76.7339,1162.1712
76.7559,1143.3784
76.7779,1183.6847
76.7999,1130.3033
76.8219,1154.9275
76.8439,1175.6417
76.8659,1141.4412
76.8879,1146.6476
76.9099,1128.4689
76.9319,1194.4203
76.9539,1179.4787
76.9759,1212.5858
76.9979,1164.5316
77.0199,1119.5725
77.0419,1166.1773
77.0639,1183.181
77.0859,1133.449
77.1079,1138.7287
77.1299,1196.7241
77.1519,1160.3547
77.1739,1149.8906
77.1959,1114.4027
77.2179,1203.6782
77.2399,1158.4737
77.2619,1192.8534
77.2839,1171.2271
77.3059,1163.5283
77.3279,1207.5129
77.3499,1214.8973
77.3719,1147.543
77.3939,1189.4192
77.4159,1227.5066
77.4379,1197.0801
77.4599,1248.7923
77.4819,1213.9486
77.5039,1172.0662
77.5259,1166.1783
77.5479,1196.3786
77.5699,1159.9356
77.5919,1225.5473
77.6139,1237.9951
77.6359,1225.597
77.6579,1173.2525
77.6799,1158.2839
77.7019,1153.0791
77.7239,1111.2344
77.7459,1161.0955
77.7679,1174.3259
77.7899,1177.595
77.8119,1168.4362
77.8339,1126.6548
77.8559,1144.0387
77.8779,1160.394
77.8999,1141.6654
77.9219,1161.6834
77.9439,1136.2789
77.9659,1074.6103
77.9879,1049.8659
78.0099,1113.4619
78.0319,1158.6369
78.0539,1122.1945
78.0759,1102.4793
78.0979,1122.8056
78.1199,1145.6574
78.1419,1158.3315
78.1639,1139.7534
78.1859,1141.8705
78.2079,1135.0327
78.2299,1107.5132
78.2519,1096.1583
78.2739,1085.5899
78.2959,1106.8218
78.3179,1115.5791
78.3399,1100.2211
78.3619,1114.6669
78.3839,1097.8414
78.4059,1076.0137
78.4279,1117.7305
78.4499,1115.5249
78.4719,1091.7093
78.4939,1092.6638
78.5159,1136.3991
78.5379,1182.8951
78.5599,1191.4454
78.5819,1138.8875
78.6039,1076.0857
78.6259,1125.8766
78.6479,1109.4211
78.6699,1101.3225
78.6919,1142.7009
78.7139,1195.7565
78.7359,1147.8359
78.7579,1157.7582
78.7799,1150.998
78.8019,1185.5873
78.8239,1093.7472
78.8459,1145.9729
78.8679,1123.4177
78.8899,1203.7409
78.9119,1139.7975
78.9339,1140.9587
78.9559,1128.0191
78.9779,1125.9459
78.9999,1122.0863
79.0219,1168.354
79.0439,1177.2369
79.0659,1157.561
79.0879,1088.9396
79.1099,1102.6914
79.1319,1120.4188
79.1539,1116.8556
79.1759,1132.6072
79.1979,1137.4012
79.2199,1137.2255
79.2419,1125.5911
79.2639,1137.887
79.2859,1097.6555
79.3079,1160.3101
79.3299,1080.187
79.3519,1095.8244
79.3739,1102.5817
79.3959,1173.5113
79.4179,1161.221
79.4399,1121.1252
79.4619,1088.5632
79.4839,1078.1536
79.5059,1108.9755
79.5279,1122.1353
79.5499,1135.9558
79.5719,1129.2086
79.5939,1113.6837
79.6159,1139.9601
79.6379,1148.5617
79.6599,1158.3262
79.6819,1137.2331
79.7039,1120.7622
79.7259,1117.1518
79.7479,1171.4044
79.7699,1202.3462
79.7919,1187.186
79.8139,1150.9645
79.8359,1152.7445
79.8579,1175.0444
79.8799,1195.8394
79.9019,1221.2303
79.9239,1156.3354
79.9459,1107.1005
79.9679,1170.061
79.9899,1157.2935
78.1199,1041.3356
78.1419,1060.9758
78.1639,1150.9417
78.1859,1174.6979
78.2079,1152.3549
78.2299,1089.1144
78.2519,1098.8383
78.2739,1120.8848
78.2959,1118.4086
78.3179,1094.0322
78.3399,1061.3317
78.3619,1045.3333
78.3839,1065.0848
78.4059,1106.4152
78.4279,1140.4028
78.4499,1103.1864
78.4719,1089.3688
78.4939,1049.5365
78.5159,1071.8828
78.5379,1114.6
78.5599,1065.7031
78.5819,1090.8479
78.6039,1081.1513
78.6259,1038.5484
78.6479,1085.3726
78.6699,1104.5487
78.6919,1111.1062
78.7139,1157.7565
78.7359,1127.3483
78.7579,1125.5516
78.7799,1101.6945
78.8019,1082.5751
78.8239,1093.0222
78.8459,1097.7483
78.8679,1099.8987
78.8899,1109.6166
78.9119,1115.8437
78.9339,1162.3533
78.9559,1137.0382
78.9779,1130.2965
78.9999,1066.2774
79.0219,1077.9292
79.0439,1078.0509
79.0659,1114.3211
79.0879,1041.7951
79.1099,1051.7463
79.1319,1056.1676
79.1539,1123.8732
79.1759,1128.4497
79.1979,1106.1217
79.2199,1074.5749
79.2419,1043.4909
79.2639,1074.7585
79.2859,1054.9763
79.3079,1041.4893
79.3299,1074.1086
79.3519,1126.0221
79.3739,1106.9328
79.3959,1076.7741
79.4179,1117.0091
79.4399,1142.5039
79.4619,1124.5632
79.4839,1083.0409
79.5059,1059.7704
79.5279,1081.9634
79.5499,1040.387
79.5719,1091.3208
79.5939,1078.3591
79.6159,1075.1279
79.6379,1071.9554
79.6599,1120.2854
