Pos. [°2?],Intensity [Counts]
7.3239,5906.1839
7.3459,6003.1239
7.3679,6023.969
7.3899,6014.5123
7.4119,5983.4395
7.4339,5962.468
7.4559,5917.8461
7.4779,5774.8289
7.4999,5829.2281
7.5219,5806.936
7.5439,5691.1992
7.5659,5849.8437
7.5879,5887.585
7.6099,5788.764
7.6319,5816.322
7.6539,5704.7335
7.6759,5730.7552
7.6979,5719.8436
7.7199,5657.6102
7.7419,5760.177
7.7639,5811.6332
7.7859,5712.2792
7.8079,5626.5752
7.8299,5602.8339
7.8519,5759.9415
7.8739,5758.9675
7.8959,5659.8328
7.9179,5559.7286
7.9399,5579.3053
7.9619,5590.2586
7.9839,5545.1873
8.0059,5493.6047
8.0279,5525.6869
8.0499,5596.0875
8.0719,5513.7212
8.0939,5444.1829
8.1159,5443.4828
8.1379,5515.77
8.1599,5610.9715
8.1819,5576.4759
8.2039,5523.9366
8.2259,5533.6539
8.2479,5489.2458
8.2699,5409.7109
8.2919,5340.8904
8.3139,5369.0885
8.3359,5463.0576
8.3579,5502.2085
8.3799,5437.4105
8.4019,5332.5634
8.4239,5261.1096
8.4459,5420.0768
8.4679,5440.8288
8.4899,5284.3057
8.5119,5285.4745
8.5339,5333.062
8.5559,5343.0015
8.5779,5252.9537
8.5999,5284.708
8.6219,5260.2694
8.6439,5282.561
8.6659,5180.0501
8.6879,5063.8731
8.7099,5103.0217
8.7319,5178.3496
8.7539,5097.7777
8.7759,5013.115
8.7979,5210.6255
8.8199,5197.8279
8.8419,5149.9223
8.8639,5032.2212
8.8859,4999.0787
8.9079,5166.3079
8.9299,5131.6725
8.9519,5107.0088
8.9739,5022.1366
8.9959,5070.5177
9.0179,5027.8859
9.0399,5032.4381
9.0619,4964.6106
9.0839,4998.5236
9.1059,4889.8888
9.1279,4830.7566
9.1499,4931.8998
9.1719,4901.9435
9.1939,4896.9764
9.2159,4893.4877
9.2379,4830.6736
9.2599,4924.8142
9.2819,4945.5054
9.3039,4846.1725
9.3259,4801.2035
9.3479,4782.884
9.3699,4891.4689
9.3919,4701.972
9.4139,4801.0442
9.4359,4773.3948
9.4579,4750.5398
9.4799,4739.8451
9.5019,4686.1987
9.5239,4764.3097
9.5459,4641.9469
9.5679,4676.2552
9.5899,4722.2035
9.6119,4723.6003
9.6339,4704.767
9.6559,4681.6327
9.6779,4616.4818
9.6999,4556.8825
9.7219,4614.593
9.7439,4670.8461
9.7659,4641.5605
9.7879,4701.7493
9.8099,4675.702
9.8319,4581.2822
9.8539,4633.6549
9.8759,4663.0231
9.8979,4719.7818
9.9199,4759.3761
9.9419,4745.5536
9.9639,4732.1843
9.9859,4695.7611
10.0079,4730.0433
10.0299,4763.3462
10.0519,4777.8761
10.0739,4803.887
10.0959,4873.3216
10.1179,4906.2566
10.1399,4960.8255
10.1619,5132.3285
10.1839,5084.3288
10.2059,5176.2008
10.2279,5313.1898
10.2499,5386.6962
10.2719,5371.788
10.2939,5409.3019
10.3159,5269.876
10.3379,5135.5496
10.3599,4892.8917
10.3819,4675.0294
10.4039,4488.5766
10.4259,4365.2173
10.4479,4368.6918
10.4699,4328.4464
10.4919,4276.3053
10.5139,4168.3451
10.5359,4213.7886
10.5579,4231.2861
10.5799,4269.8968
10.6019,4185.2035
10.6239,4067.5879
10.6459,4142.1682
10.6679,4071.2074
10.6899,4007.7335
10.7119,4074.093
10.7339,4053.177
10.7559,3942.3446
10.7779,3991.7818
10.7999,4004.4459
10.8219,3918.2182
10.8439,4098.2494
10.8659,4024.7207
10.8879,3901.6887
10.9099,3886.2124
10.9319,3912.854
10.9539,3916.6746
10.9759,4012.2359
10.9979,3918.5073
11.0199,3815.7257
11.0419,3916.4218
11.0639,3875.3919
11.0859,3909.6126
11.1079,3917.5929
11.1299,3808.8456
11.1519,3757.4002
11.1739,3824.7551
11.1959,3811.9514
11.2179,3849.6361
11.2399,3764.1667
11.2619,3800.5694
11.2839,3864.5413
11.3059,3805.3185
11.3279,3704.7699
11.3499,3737.1062
11.3719,3745.4705
11.3939,3713.0904
11.4159,3673.5049
11.4379,3681.5634
11.4599,3692.0079
11.4819,3707.3608
11.5039,3594.438
11.5259,3574.3393
11.5479,3635.9513
11.5699,3661.593
11.5919,3689.4808
11.6139,3581.9114
11.6359,3519.1534
11.6579,3623.6304
11.6799,3638.8647
11.7019,3540.469
11.7239,3560.3707
11.7459,3566
11.7679,3547.0722
11.7899,3537.3225
11.8119,3510.6425
11.8339,3453.5428
11.8559,3454.8353
11.8779,3476.8004
11.8999,3464.261
11.9219,3471.5507
11.9439,3491.56
11.9659,3493.7168
11.9879,3536.504
12.0099,3622.7011
12.0319,3551.963
12.0539,3534.8221
12.0759,3506.7959
12.0979,3450.0354
12.1199,3510.414
12.1419,3501.058
12.1639,3507.3643
12.1859,3494.5831
12.2079,3578.5089
12.2299,3594.2478
12.2519,3583.5359
12.2739,3498.8888
12.2959,3549.447
12.3179,3440.4374
12.3399,3474.9971
12.3619,3395.2241
12.3839,3454.415
12.4059,3303.2004
12.4279,3470.1049
12.4499,3448.7994
12.4719,3390.8318
12.4939,3289.3362
12.5159,3398.1368
12.5379,3407.8653
12.5599,3487.4676
12.5819,3482.2537
12.6039,3323.1189
12.6259,3328.8791
12.6479,3336.6731
12.6699,3407.4878
12.6919,3427.6018
12.7139,3433.941
12.7359,3394.1352
12.7579,3447.5397
12.7799,3351.947
12.8019,3420.0727
12.8239,3375.2714
12.8459,3417.5752
12.8679,3419.5988
12.8899,3350.6726
12.9119,3440.8063
12.9339,3433.0736
12.9559,3326.531
12.9779,3397.7974
12.9999,3388.4985
13.0219,3403.941
13.0439,3379.5763
13.0659,3480.6685
13.0879,3372.5133
13.1099,3454.5939
13.1319,3448.762
13.1539,3380.3481
13.1759,3374.7517
13.1979,3390.416
13.2199,3442.1844
13.2419,3488.7926
13.2639,3558.2099
13.2859,3515.3009
13.3079,3468.0004
13.3299,3425.6598
13.3519,3416.1475
13.3739,3444.3255
13.3959,3526.2188
13.4179,3543.1799
13.4399,3521.8761
13.4619,3502.8387
13.4839,3486.7965
13.5059,3493.5467
13.5279,3535.3614
13.5499,3591.2331
13.5719,3573.9871
13.5939,3627.5164
13.6159,3684.1784
13.6379,3698.9205
13.6599,3687.5294
13.6819,3651.885
13.7039,3716.7931
13.7259,3724.8889
13.7479,3743.7995
13.7699,3788.3048
13.7919,3820.7729
13.8139,3898.3098
13.8359,3941.617
13.8579,3996.7493
13.8799,4077.1195
13.9019,4111.1927
13.9239,4232.247
13.9459,4391.4131
13.9679,4440.3815
13.9899,4578.0946
14.0119,4621.6932
14.0339,4656.0197
14.0559,4852.2809
14.0779,5104.8055
14.0999,5159.355
14.1219,5287.5016
14.1439,5564.0932
14.1659,5805.1044
14.1879,6109.3739
14.2099,6406.8764
14.2319,6641.4151
14.2539,6950.8744
14.2759,7064.5753
14.2979,7528.3141
14.3199,7752.7347
14.3419,7716.3185
14.3639,7719.12
14.3859,7461.1994
14.4079,7206.7918
14.4299,6728.9003
14.4519,6184.973
14.4739,5782.4067
14.4959,5398.4033
14.5179,4881.0084
14.5399,4429.1446
14.5619,4435.8758
14.5839,4129.0472
14.6059,4143.746
14.6279,3844.1021
14.6499,3642.9359
14.6719,3476.7744
14.6939,3503.3382
14.7159,3458.8952
14.7379,3377.5723
14.7599,3377.2752
14.7819,3284.4099
14.8039,3179.7404
14.8259,3156.9903
14.8479,3210.9232
14.8699,3088.5929
14.8919,3026.1022
14.9139,3016.5349
14.9359,2999.7698
14.9579,2917.2212
14.9799,2881.291
15.0019,2841.5044
15.0239,2816.0364
15.0459,2838.2281
15.0679,2804.3894
15.0899,2788.7079
15.1119,2807.154
15.1339,2850.1975
15.1559,2772.1938
15.1779,2841.1033
15.1999,2846.0796
15.2219,2822.7394
15.2439,2831.8437
15.2659,2796.9911
15.2879,2703.7423
15.3099,2672.0964
15.3319,2692.7168
15.3539,2676.466
15.3759,2643.4975
15.3979,2611.4336
15.4199,2633.1692
15.4419,2600.404
15.4639,2528.4735
15.4859,2571.6461
15.5079,2637.6589
15.5299,2648.6047
15.5519,2558.4001
15.5739,2475.4798
15.5959,2559.8497
15.6179,2619.649
15.6399,2545.0137
15.6619,2541.8673
15.6839,2560.1032
15.7059,2599.6903
15.7279,2575.8392
15.7499,2592.4347
15.7719,2582.7536
15.7939,2663.419
15.8159,2669.9021
15.8379,2616.8121
15.8599,2587.0442
15.8819,2595.6814
15.9039,2597.6829
15.9259,2575.0295
15.9479,2595.2994
15.9699,2536.4512
15.9919,2615.4765
16.0139,2618.4897
16.0359,2625.9995
16.0579,2612.5487
16.0799,2646.5694
16.1019,2661.7129
16.1239,2628.084
16.1459,2631.2606
16.1679,2602.5644
16.1899,2530.0884
16.2119,2527.8333
16.2339,2530.8702
16.2559,2485.4557
16.2779,2572.3187
16.2999,2475.6326
16.3219,2489.3509
16.3439,2381.2734
16.3659,2450
16.3879,2450.2139
16.4099,2450.76
16.4319,2384.5335
16.4539,2465.6813
16.4759,2362.413
16.4979,2403.4985
16.5199,2388.6417
16.5419,2431.7866
16.5639,2397.9568
16.5859,2490.2271
16.6079,2482.0884
16.6299,2403.4405
16.6519,2374.0619
16.6739,2344.7248
16.6959,2446.2148
16.7179,2451.0885
16.7399,2439.6203
16.7619,2377.124
16.7839,2426.2478
16.8059,2404.9872
16.8279,2382.8456
16.8499,2384.5133
16.8719,2392.8078
16.8939,2388.9764
16.9159,2404.1726
16.9379,2404.4463
16.9599,2371.1313
16.9819,2388.1327
17.0039,2391.2508
17.0259,2409.8141
17.0479,2394.8849
17.0699,2397.0521
17.0919,2389.2482
17.1139,2379.7965
17.1359,2345.9443
17.1579,2319.0532
17.1799,2381.2626
17.2019,2357.2457
17.2239,2318.7262
17.2459,2345.1416
17.2679,2379.8422
17.2899,2357.5437
17.3119,2337.975
17.3339,2370.1377
17.3559,2416.9298
17.3779,2408.0147
17.3999,2380.9184
17.4219,2373.8977
17.4439,2387.1859
17.4659,2403.0954
17.4879,2349.1553
17.5099,2341.0974
17.5319,2341.0895
17.5539,2336.6942
17.5759,2331.3481
17.5979,2288.7482
17.6199,2284.6972
17.6419,2270.4159
17.6639,2216.3937
17.6859,2197.9282
17.7079,2271.1225
17.7299,2230.9753
17.7519,2247.1928
17.7739,2324.4544
17.7959,2244.6188
17.8179,2278.0266
17.8399,2276.0442
17.8619,2268.8024
17.8839,2319.8354
17.9059,2290.4749
17.9279,2313.9976
17.9499,2340.8014
17.9719,2228.8892
17.9939,2312.122
18.0159,2260.8613
18.0379,2201.0884
18.0599,2312.3197
18.0819,2249.7138
18.1039,2226.0074
18.1259,2230.9036
18.1479,2224.2345
18.1699,2232.1563
18.1919,2211.7596
18.2139,2231.9155
18.2359,2307.5131
18.2579,2161.4386
18.2799,2242.6928
18.3019,2279.1387
18.3239,2287.2078
18.3459,2176.1072
18.3679,2222.6387
18.3899,2245.5458
18.4119,2308.3638
18.4339,2265.8672
18.4559,2230.084
18.4779,2201.9961
18.4999,2240.2405
18.5219,2257.7197
18.5439,2231.8811
18.5659,2243.1946
18.5879,2166.3185
18.6099,2135.5251
18.6319,2190.2037
18.6539,2259.4287
18.6759,2224.8372
18.6979,2224.6668
18.7199,2266.8662
18.7419,2255.6008
18.7639,2249.2728
18.7859,2146.8927
18.8079,2097.1884
18.8299,2195.8851
18.8519,2254.4832
18.8739,2226.9567
18.8959,2227.8791
18.9179,2178.3194
18.9399,2155.1963
18.9619,2209.0767
18.9839,2199.6032
19.0059,2177.8485
19.0279,2186.7788
19.0499,2213.2999
19.0719,2245.1141
19.0939,2243.5988
19.1159,2244.974
19.1379,2235.5172
19.1599,2200.4395
19.1819,2166.6617
19.2039,2180.3373
19.2259,2238.8408
19.2479,2227.1258
19.2699,2086.866
19.2919,2173.9988
19.3139,2246.6126
19.3359,2250.5182
19.3579,2211.5781
19.3799,2143.2806
19.4019,2128.8132
19.4239,2136.9115
19.4459,2217.128
19.4679,2250.6352
19.4899,2156.7992
19.5119,2218.0557
19.5339,2136.3479
19.5559,2113.2507
19.5779,2151.124
19.5999,2148.1155
19.6219,2140.9026
19.6439,2161.5462
19.6659,2194.7208
19.6879,2178.6121
19.7099,2208.354
19.7319,2148.229
19.7539,2189.0886
19.7759,2170.5457
19.7979,2163.3127
19.8199,2194.6859
19.8419,2230.0364
19.8639,2246.7562
19.8859,2224.0678
19.9079,2134.3173
19.9299,2272.9832
19.9519,2227.2035
19.9739,2228.8868
19.9959,2144.117
20.0179,2145.646
20.0399,2144.1574
20.0619,2182.4337
20.0839,2221.4603
20.1059,2270.8013
20.1279,2233.5196
20.1499,2185.3628
20.1719,2161.5669
20.1939,2199.8082
20.2159,2154.2302
20.2379,2246.8113
20.2599,2258.846
20.2819,2194.1002
20.3039,2162.0508
20.3259,2250.5417
20.3479,2180.2418
20.3699,2174.0247
20.3919,2267.6721
20.4139,2290.292
20.4359,2261.4802
20.4579,2204.4484
20.4799,2261.2066
20.5019,2315.3048
20.5239,2289.2419
20.5459,2348.9412
20.5679,2410.2664
20.5899,2440.2923
20.6119,2570.2611
20.6339,2566.1573
20.6559,2542.2817
20.6779,2497.4099
20.6999,2455.621
20.7219,2427.8042
20.7439,2322.8833
20.7659,2295.9008
20.7879,2303.4616
20.8099,2301.4514
20.8319,2283.8382
20.8539,2265.3707
20.8759,2279.3009
20.8979,2271.8761
20.9199,2211.6995
20.9419,2217.0267
20.9639,2311.5272
20.9859,2338.7099
21.0079,2232.2962
21.0299,2226.1673
21.0519,2215.7944
21.0739,2234.3069
21.0959,2236.1543
21.1179,2204.3834
21.1399,2219.1151
21.1619,2264.7867
21.1839,2239.9999
21.2059,2291.1063
21.2279,2267.9512
21.2499,2247.4454
21.2719,2231.3436
21.2939,2321.0415
21.3159,2310.3854
21.3379,2240.3804
21.3599,2296.5675
21.3819,2306.1701
21.4039,2242.4601
21.4259,2195.8456
21.4479,2177.824
21.4699,2227.1564
21.4919,2267.089
21.5139,2337.181
21.5359,2228.2211
21.5579,2287.8379
21.5799,2264.6961
21.6019,2273.5133
21.6239,2248.8308
21.6459,2160.7501
21.6679,2251.3143
21.6899,2223.241
21.7119,2271.4493
21.7339,2241.593
21.7559,2294.9612
21.7779,2314.4581
21.7999,2270.0664
21.8219,2285.6315
21.8439,2444.4482
21.8659,2311.1533
21.8879,2252.3585
21.9099,2322.4661
21.9319,2297.0072
21.9539,2231.0622
21.9759,2375.8353
21.9979,2363.4955
22.0199,2309.8107
22.0419,2297.3087
22.0639,2257.6298
22.0859,2298.7356
22.1079,2338.3549
22.1299,2315.0975
22.1519,2403.4788
22.1739,2364.3638
22.1959,2349.0664
22.2179,2378.1986
22.2399,2413.9121
22.2619,2482.0325
22.2839,2498.2645
22.3059,2478.3677
22.3279,2484.4293
22.3499,2511.7689
22.3719,2488.3343
22.3939,2496.4603
22.4159,2572.7366
22.4379,2645.2882
22.4599,2675.382
22.4819,2708.6609
22.5039,2812.2912
22.5259,2879.4632
22.5479,2883.9877
22.5699,2916.1663
22.5919,2961.438
22.6139,2976.24
22.6359,3062.3463
22.6579,3166.1122
22.6799,3209.8122
22.7019,3307.249
22.7239,3309.5839
22.7459,3372.0544
22.7679,3606.081
22.7899,3741.2125
22.8119,3822.9126
22.8339,3948.5233
22.8559,4139.7703
22.8779,4181.9055
22.8999,4323.9748
22.9219,4440.9794
22.9439,4548.894
22.9659,4816.4135
22.9879,4996.8011
23.0099,5257.911
23.0319,5425.2966
23.0539,5583.6168
23.0759,5785.8641
23.0979,5821.7099
23.1199,5908.2258
23.1419,6026.303
23.1639,5892.2573
23.1859,5849.0708
23.2079,5781.319
23.2299,5628.0922
23.2519,5517.3641
23.2739,5355.5012
23.2959,5325.2719
23.3179,5209.693
23.3399,5176.7581
23.3619,5021.9368
23.3839,5100.4736
23.4059,5137.7631
23.4279,4980.9024
23.4499,4931.5427
23.4719,4998.961
23.4939,4919.5909
23.5159,4885.1916
23.5379,4777.6815
23.5599,4818.0702
23.5819,4755.929
23.6039,4668.0089
23.6259,4718.3461
23.6479,4722.2965
23.6699,4723.1111
23.6919,4714.0468
23.7139,4749.2654
23.7359,4709.0271
23.7579,4754.7492
23.7799,4715.4424
23.8019,4671.6144
23.8239,4618.3801
23.8459,4615.2035
23.8679,4564.2614
23.8899,4491.703
23.9119,4469.3305
23.9339,4496.759
23.9559,4478.1672
23.9779,4453.6989
23.9999,4423.9811
24.0219,4552.3118
24.0439,4544.8316
24.0659,4486.2293
24.0879,4568.0286
24.1099,4652.5342
24.1319,4788.7843
24.1539,4938.9287
24.1759,5247.2306
24.1979,5625.5868
24.2199,6152.2173
24.2419,6835.1783
24.2639,7636.6661
24.2859,8225.5629
24.3079,7930.019
24.3299,6973.7851
24.3519,6097.7523
24.3739,5352.5033
24.3959,4756.5744
24.4179,4510.884
24.4399,4539.8541
24.4619,4567.6608
24.4839,4568.4341
24.5059,4462.7726
24.5279,4438.5513
24.5499,4309.2424
24.5719,4199.385
24.5939,4183.9439
24.6159,4020.8496
24.6379,4081.3337
24.6599,4152.0295
24.6819,4037.0538
24.7039,4022.5724
24.7259,4004.2447
24.7479,4075.3183
24.7699,4044.6901
24.7919,4030.3314
24.8139,3913.2101
24.8359,3894.3511
24.8579,3936.6422
24.8799,3943.8515
24.9019,3880.6459
24.9239,3871.4936
24.9459,3844.1602
24.9679,3850.5443
24.9899,3888.6402
25.0119,3770.1743
25.0339,3707.2153
25.0559,3749.6997
25.0779,3745.2271
25.0999,3747.6401
25.1219,3779.359
25.1439,3673.5849
25.1659,3718.0797
25.1879,3650.9787
25.2099,3614.9695
25.2319,3615.9676
25.2539,3470.574
25.2759,3549.9614
25.2979,3662.2447
25.3199,3576.4305
25.3419,3501.8142
25.3639,3523.5444
25.3859,3592.345
25.4079,3520.2021
25.4299,3564.0238
25.4519,3621.6895
25.4739,3474.6344
25.4959,3596.7834
25.5179,3682.5447
25.5399,3653.8963
25.5619,3720.735
25.5839,3938.1587
25.6059,3940.0142
25.6279,4118.0502
25.6499,4131.4327
25.6719,4112.657
25.6939,3973.8406
25.7159,3852.02
25.7379,3597.3265
25.7599,3571.7076
25.7819,3411.0588
25.8039,3351.4937
25.8259,3371
25.8479,3428.3872
25.8699,3483.0596
25.8919,3399.4235
25.9139,3438.992
25.9359,3340.8803
25.9579,3290.5842
25.9799,3326.4017
26.0019,3308.3716
26.0239,3313.1167
26.0459,3330.8799
26.0679,3335.1653
26.0899,3373.8318
26.1119,3309.5725
26.1339,3310.8164
26.1559,3328.4998
26.1779,3308.7867
26.1999,3347.8688
26.2219,3289.5012
26.2439,3208.8367
26.2659,3191.2458
26.2879,3225.1299
26.3099,3255.4464
26.3319,3195.3803
26.3539,3172.1505
26.3759,3215.5227
26.3979,3235.2704
26.4199,3224.9926
26.4419,3169.5161
26.4639,3122.4935
26.4859,3161.9588
26.5079,3224.0129
26.5299,3243.1268
26.5519,3144.4688
26.5739,3189.6226
26.5959,3271.4618
26.6179,3276.8702
26.6399,3256.8215
26.6619,3260.6097
26.6839,3076.178
26.7059,3229.0123
26.7279,3262.2478
26.7499,3280.6284
26.7719,3328.0517
26.7939,3352.2724
26.8159,3348.0501
26.8379,3219.2514
26.8599,3321.7043
26.8819,3177.5188
26.9039,3275.7372
26.9259,3205.0736
26.9479,3124.5441
26.9699,3206.8841
26.9919,3300.9368
27.0139,3224.6724
27.0359,3286.4652
27.0579,3208.819
27.0799,3163.357
27.1019,3182.6901
27.1239,3105.0202
27.1459,3119.2828
27.1679,2954.7623
27.1899,3080.8545
27.2119,3095.4986
27.2339,3146.7268
27.2559,3188.8666
27.2779,3125.2389
27.2999,3132.5223
27.3219,3213.0286
27.3439,3232.4558
27.3659,3256.9687
27.3879,3350.2836
27.4099,3505.584
27.4319,3483.5742
27.4539,3469.1651
27.4759,3419.7758
27.4979,3361.041
27.5199,3194.1206
27.5419,3062.5397
27.5639,3074.6061
27.5859,3161.5857
27.6079,3070.5651
27.6299,3136
27.6519,3134.321
27.6739,3141.0945
27.6959,3172.2528
27.7179,3189.528
27.7399,3173.5309
27.7619,3213.2313
27.7839,3231.3404
27.8059,3148.593
27.8279,3149.0152
27.8499,3094.93
27.8719,3114.6404
27.8939,3196.116
27.9159,3197.383
27.9379,3191.0885
27.9599,3189.1259
27.9819,3195.4395
28.0039,3191.3377
28.0259,3213.5134
28.0479,3206.1484
28.0699,3243.779
28.0919,3314.591
28.1139,3354.9745
28.1359,3426.3763
28.1579,3464.237
28.1799,3449.8613
28.2019,3476.3688
28.2239,3605.4453
28.2459,3654.9882
28.2679,3641.4808
28.2899,3780.9847
28.3119,3730.8669
28.3339,3680.8496
28.3559,3545.1152
28.3779,3474.9822
28.3999,3472.5221
28.4219,3365.9968
28.4439,3353.2351
28.4659,3323.4247
28.4879,3309.1829
28.5099,3272.9488
28.5319,3356.0179
28.5539,3369.9616
28.5759,3363.8879
28.5979,3501.2894
28.6199,3611.5366
28.6419,3713.778
28.6639,3787.1816
28.6859,3927.3671
28.7079,3865.9389
28.7299,4034.4783
28.7519,4161.9422
28.7739,4253.6747
28.7959,4442.2364
28.8179,4554.6069
28.8399,4770.8947
28.8619,5122.2218
28.8839,5393.4456
28.9059,5461.2414
28.9279,5716.6111
28.9499,5938.5098
28.9719,6155.4801
28.9939,6071.9734
29.0159,6035.9533
29.0379,5777.7979
29.0599,5538.7799
29.0819,5358.2963
29.1039,5058.4215
29.1259,4873.6809
29.1479,4662.0961
29.1699,4512.8598
29.1919,4271.115
29.2139,4239.704
29.2359,4212.883
29.2579,4195.9585
29.2799,4096.8802
29.3019,4017.9284
29.3239,4038.1147
29.3459,3913.7178
29.3679,3942.1551
29.3899,3969.6634
29.4119,3861.875
29.4339,3873.4447
29.4559,3940.7522
29.4779,3940.6618
29.4999,3960.5304
29.5219,3926.2123
29.5439,3855.5032
29.5659,3788.3028
29.5879,3758.2167
29.6099,3757.7818
29.6319,3788.0221
29.6539,3751.6547
29.6759,3729.3968
29.6979,3750.8309
29.7199,3885.1554
29.7419,4023.0207
29.7639,4051.7867
29.7859,4124.0503
29.8079,4134.0407
29.8299,3992.1628
29.8519,3871.1902
29.8739,3705.8569
29.8959,3516.1147
29.9179,3462.4159
29.9399,3333.9764
29.9619,3266.0325
29.9839,3193.8921
30.0059,3079.0008
30.0279,3087.7627
30.0499,3064.3892
30.0719,3083.2686
30.0939,3052.993
30.1159,3054.0841
30.1379,3034.0127
30.1599,2933.8262
30.1819,2964.189
30.2039,3023.0778
30.2259,2945.2338
30.2479,2941.798
30.2699,2995.1073
30.2919,2917.0101
30.3139,2975.8321
30.3359,2984.647
30.3579,3004.1898
30.3799,2962.4261
30.4019,2964.5939
30.4239,2966
30.4459,3072.7141
30.4679,3005.0037
30.4899,2929.7422
30.5119,2956.6771
30.5339,3052.6462
30.5559,3011.0476
30.5779,3022.5871
30.5999,3076.0709
30.6219,3139.6904
30.6439,3153.3983
30.6659,3206.6656
30.6879,3195.8165
30.7099,3380.2305
30.7319,3565.8592
30.7539,3704.778
30.7759,3804.1591
30.7979,3747.6217
30.8199,3840.0487
30.8419,3874.7147
30.8639,4239.0794
30.8859,4615.424
30.9079,5150.6162
30.9299,5811.3028
30.9519,7227.4704
30.9739,9475.6185
30.9959,13021.4299
31.0179,16298.9707
31.0399,18288.4013
31.0619,16975.885
31.0839,13657.6956
31.1059,11182.1198
31.1279,9076.6603
31.1499,6441.2933
31.1719,4735.9245
31.1939,4078.4791
31.2159,3800.6889
31.2379,3651.6133
31.2599,3533.7382
31.2819,3441.7157
31.3039,3372.0396
31.3259,3262.6329
31.3479,3131.9413
31.3699,3097.5193
31.3919,3080.5991
31.4139,3029.0629
31.4359,3073.4869
31.4579,3088.3391
31.4799,3079.3128
31.5019,3204.5314
31.5239,3300
31.5459,3285.6833
31.5679,3162.5674
31.5899,3073.7178
31.6119,2993.6461
31.6339,2858.9083
31.6559,2834.4834
31.6779,2838.5437
31.6999,2800.3273
31.7219,2793.8024
31.7439,2758.4649
31.7659,2830.9384
31.7879,2849.8558
31.8099,2841.5173
31.8319,2882.8969
31.8539,2962.188
31.8759,3010.4789
31.8979,3152.0978
31.9199,3317.9197
31.9419,3461.3592
31.9639,3710.2794
31.9859,3866.2844
32.0079,3852.99
32.0299,3726.8699
32.0519,3629.0976
32.0739,3535.4019
32.0959,3354.9199
32.1179,2935.1346
32.1399,2857
32.1619,2845.879
32.1839,2788.464
32.2059,2772.9597
32.2279,2807.6933
32.2499,2864.4682
32.2719,2984.6144
32.2939,3057.2568
32.3159,3138.2613
32.3379,3132.5083
32.3599,3177.4057
32.3819,3131.0599
32.4039,3193.4023
32.4259,3211.3484
32.4479,3332.3078
32.4699,3549.2215
32.4919,3670.9651
32.5139,3867.8468
32.5359,3963.7289
32.5579,4072.9321
32.5799,4032.6184
32.6019,3980.0733
32.6239,3793.8564
32.6459,3546.255
32.6679,3261.5274
32.6899,3012.7873
32.7119,2877.7028
32.7339,2777.4717
32.7559,2681.9942
32.7779,2699.0176
32.7999,2677.4092
32.8219,2724.9468
32.8439,2701.8717
32.8659,2680.8199
32.8879,2633.3008
32.9099,2622.7336
32.9319,2651.7091
32.9539,2680.6753
32.9759,2602.3863
32.9979,2566.4828
33.0199,2551.55
33.0419,2462.9014
33.0639,2385.2964
33.0859,2353.5043
33.1079,2352.4225
33.1299,2346.4107
33.1519,2295.9337
33.1739,2331.6254
33.1959,2358.9622
33.2179,2330.1296
33.2399,2278.4577
33.2619,2292.6304
33.2839,2287.7433
33.3059,2273.9135
33.3279,2302.7823
33.3499,2316.7699
33.3719,2289.7413
33.3939,2304.1693
33.4159,2245.2563
33.4379,2192.4819
33.4599,2240.4185
33.4819,2279.6372
33.5039,2256.3185
33.5259,2217.7099
33.5479,2207.6298
33.5699,2166.9064
33.5919,2161.6682
33.6139,2187.6667
33.6359,2180.3839
33.6579,2208.2538
33.6799,2235.2567
33.7019,2174.1433
33.7239,2225.9093
33.7459,2168.3714
33.7679,2206.4963
33.7899,2157.8552
33.8119,2130.559
33.8339,2158.2144
33.8559,2262.2245
33.8779,2233.0795
33.8999,2225.9587
33.9219,2189.2565
33.9439,2239.8704
33.9659,2237.0501
33.9879,2142.1846
34.0099,2288.8235
34.0319,2166.7685
34.0539,2150.0875
34.0759,2230.456
34.0979,2158.2859
34.1199,2059.9624
34.1419,2041.5368
34.1639,2158.8474
34.1859,2144.2477
34.2079,2170.9602
34.2299,2130.7728
34.2519,2110.6471
34.2739,2140.7613
34.2959,2215.5231
34.3179,2203.4207
34.3399,2169.071
34.3619,2256.3021
34.3839,2344.1182
34.4059,2222.5811
34.4279,2206.021
34.4499,2161.4413
34.4719,2123.8145
34.4939,2233.066
34.5159,2272.6246
34.5379,2311.8699
34.5599,2218.4652
34.5819,2255.5233
34.6039,2298.9128
34.6259,2270.3876
34.6479,2307.0043
34.6699,2285.0621
34.6919,2329.6815
34.7139,2315.2228
34.7359,2213.9351
34.7579,2247.2991
34.7799,2287.5962
34.8019,2276.0651
34.8239,2337
34.8459,2314.992
34.8679,2286.7523
34.8899,2290.6793
34.9119,2254.204
34.9339,2205.0529
34.9559,2174.9883
34.9779,2220.5773
34.9999,2198.1354
35.0219,2178.9835
35.0439,2225.0688
35.0659,2249.8054
35.0879,2239.7668
35.1099,2207.0345
35.1319,2232.0163
35.1539,2246.3648
35.1759,2215.9546
35.1979,2231.1654
35.2199,2226.3455
35.2419,2171.4945
35.2639,2223.2083
35.2859,2235.1503
35.3079,2184.8637
35.3299,2143.9851
35.3519,2076.074
35.3739,2010.9025
35.3959,2103.9193
35.4179,2122.5515
35.4399,2177.4904
35.4619,2214.4956
35.4839,2241.6107
35.5059,2290.3561
35.5279,2390.3749
35.5499,2482.3591
35.5719,2374.4632
35.5939,2308.4955
35.6159,2222.4845
35.6379,2200.2026
35.6599,2055.0571
35.6819,2067.8556
35.7039,1972.0415
35.7259,1963.6992
35.7479,1988.3314
35.7699,2022.4917
35.7919,2064.1063
35.8139,2186.3465
35.8359,2095.5725
35.8579,2148.5046
35.8799,2079.3882
35.9019,2085.3393
35.9239,2103.2301
35.9459,2130.1771
35.9679,2065.2186
35.9899,2018.2713
36.0119,2049.6867
36.0339,2002.1398
36.0559,2059.9246
36.0779,1996.2547
36.0999,2018.8886
36.1219,1932.1357
36.1439,1931.8362
36.1659,1904.5044
36.1879,1886.9117
36.2099,1943.4257
36.2319,1922.9656
36.2539,1910.053
36.2759,1879.6938
36.2979,1907.6764
36.3199,1902.7789
36.3419,1961.006
36.3639,1971.0963
36.3859,1944.2153
36.4079,1972.5436
36.4299,2077.5164
36.4519,2087.5174
36.4739,2026.4574
36.4959,2092.4382
36.5179,2140.8909
36.5399,2129.9172
36.5619,2065.7294
36.5839,1998.0942
36.6059,1963.3973
36.6279,1966.3913
36.6499,1952.0088
36.6719,1938.2477
36.6939,1906.0795
36.7159,1884.1918
36.7379,1903.884
36.7599,1924.5473
36.7819,1888.4982
36.8039,1870.0067
36.8259,1939.0777
36.8479,1891.128
36.8699,1906.0328
36.8919,1993.4352
36.9139,2113.0861
36.9359,2233.4273
36.9579,2300.6069
36.9799,2334.8864
37.0019,2364.8075
37.0239,2304.3737
37.0459,2208.7963
37.0679,2170.7054
37.0899,2096.3085
37.1119,2005.0824
37.1339,1991.7307
37.1559,1950.3577
37.1779,1881.2152
37.1999,1837.8863
37.2219,1856.3433
37.2439,1890.8408
37.2659,1877.3765
37.2879,1846.4217
37.3099,1844.5841
37.3319,1843.2807
37.3539,1868.4652
37.3759,1890.8319
37.3979,1851.2791
37.4199,1851.6883
37.4419,1963.7172
37.4639,1898.4284
37.4859,1839.8248
37.5079,1805.0501
37.5299,1785.4739
37.5519,1774.3323
37.5739,1818.7111
37.5959,1833.9135
37.6179,1742.8286
37.6399,1736.6637
37.6619,1789.9087
37.6839,1822.2154
37.7059,1759.2092
37.7279,1804.2548
37.7499,1888.1005
37.7719,1756.3934
37.7939,1788.0748
37.8159,1826.2995
37.8379,1845.3538
37.8599,1786.1653
37.8819,1818.068
37.9039,1867.0085
37.9259,1746.7285
37.9479,1728.1527
37.9699,1819.1887
37.9919,1775.8803
38.0139,1698.3804
38.0359,1669.6993
38.0579,1733.2634
38.0799,1731.8956
38.1019,1830.6489
38.1239,1789.8758
38.1459,1711.5341
38.1679,1766.4515
38.1899,1809.2505
38.2119,1747.297
38.2339,1726.2828
38.2559,1654.9678
38.2779,1740.4357
38.2999,1745.125
38.3219,1658.2183
38.3439,1667.6068
38.3659,1699.2861
38.3879,1707.3412
38.4099,1736.3443
38.4319,1757.022
38.4539,1729.4051
38.4759,1672.9131
38.4979,1650.6642
38.5199,1730.3273
38.5419,1693.0451
38.5639,1671.8643
38.5859,1669
38.6079,1717.8951
38.6299,1727.5926
38.6519,1672.7385
38.6739,1707.1486
38.6959,1714.7639
38.7179,1695.5182
38.7399,1703.9573
38.7619,1670.2918
38.7839,1670.4141
38.8059,1741.1192
38.8279,1765.3053
38.8499,1695.0705
38.8719,1726.5289
38.8939,1704.4834
38.9159,1677.6068
38.9379,1749.546
38.9599,1791.8407
38.9819,1754.7275
39.0039,1761.1191
39.0259,1711.8758
39.0479,1709.2921
39.0699,1718.5703
39.0919,1752.9028
39.1139,1682.4441
39.1359,1669.5379
39.1579,1683.4042
39.1799,1687.5526
39.2019,1700.6175
39.2239,1704.8009
39.2459,1617.9899
39.2679,1593.0472
39.2899,1659.8586
39.3119,1649.1985
39.3339,1586.3607
39.3559,1607.6122
39.3779,1664.3286
39.3999,1709.6663
39.4219,1687.5663
39.4439,1660.9812
39.4659,1715.1654
39.4879,1702.8775
39.5099,1728.8988
39.5319,1749.4593
39.5539,1738.177
39.5759,1716.054
39.5979,1786.8164
39.6199,1868.0485
39.6419,1823.2466
39.6639,1747.9151
39.6859,1788.18
39.7079,1800.7264
39.7299,1728.7791
39.7519,1833.1238
39.7739,1806.9735
39.7959,1815.9636
39.8179,1821.938
39.8399,1821.6717
39.8619,1865.0905
39.8839,1887.8481
39.9059,1914.0112
39.9279,2005.2319
39.9499,1984.5636
39.9719,2028.7812
39.9939,2022.4542
40.0159,2018.6019
40.0379,2066.0453
40.0599,2080.0384
40.0819,2085.4659
40.1039,2039.7822
40.1259,2054.5568
40.1479,2115.5134
40.1699,2167.6227
40.1919,2235.0752
40.2139,2228.9645
40.2359,2233.0056
40.2579,2242.0361
40.2799,2248.6642
40.3019,2373.5764
40.3239,2386.228
40.3459,2367.2656
40.3679,2370.4395
40.3899,2404.0406
40.4119,2458.2124
40.4339,2512.7044
40.4559,2554.4758
40.4779,2548.0473
40.4999,2615.3769
40.5219,2635.5928
40.5439,2582.0057
40.5659,2628.4822
40.5879,2767.6253
40.6099,2750.4686
40.6319,2815.5532
40.6539,2945.5863
40.6759,3023.5799
40.6979,3075.6048
40.7199,3180.3185
40.7419,3190.1679
40.7639,3241.0613
40.7859,3358.4792
40.8079,3396.3142
40.8299,3483.965
40.8519,3520.5791
40.8739,3448.451
40.8959,3340.1491
40.9179,3331.1771
40.9399,3266.5985
40.9619,3251.7188
40.9839,3215.5756
41.0059,3078.3623
41.0279,2965.9333
41.0499,3011.0415
41.0719,2879.9995
41.0939,2882.2882
41.1159,2833.0932
41.1379,2770.9172
41.1599,2743.585
41.1819,2673.8906
41.2039,2745.8233
41.2259,2694.2407
41.2479,2706.7016
41.2699,2646.6429
41.2919,2723.3247
41.3139,2781.2381
41.3359,2724.1503
41.3579,2647.5229
41.3799,2654.8539
41.4019,2628.3363
41.4239,2647.8398
41.4459,2673.7738
41.4679,2643.0529
41.4899,2601.4282
41.5119,2733.1583
41.5339,2725.0321
41.5559,2623.7177
41.5779,2606.9008
41.5999,2627.4601
41.6219,2628.1084
41.6439,2680.2509
41.6659,2586.7226
41.6879,2545.9482
41.7099,2531.3279
41.7319,2630.4201
41.7539,2596.798
41.7759,2702.8418
41.7979,2625.6019
41.8199,2668.0739
41.8419,2738.2982
41.8639,2777.2814
41.8859,2727.1321
41.9079,2816.5099
41.9299,2806.1708
41.9519,2766.1236
41.9739,2803.2546
41.9959,2803.9824
42.0179,2848.4544
42.0399,2855.5583
42.0619,2766.6279
42.0839,2695.7911
42.1059,2716.8517
42.1279,2722.3745
42.1499,2660.8454
42.1719,2618.031
42.1939,2550.2915
42.2159,2475.8668
42.2379,2484.6067
42.2599,2467.0825
42.2819,2372.5236
42.3039,2321.6034
42.3259,2354.5428
42.3479,2359.2689
42.3699,2383.8084
42.3919,2414.1328
42.4139,2365.6064
42.4359,2294.4448
42.4579,2245.6547
42.4799,2287.5165
42.5019,2324.6323
42.5239,2374.63
42.5459,2392.1474
42.5679,2395.6987
42.5899,2377.5132
42.6119,2428.0465
42.6339,2615.9683
42.6559,2739.7451
42.6779,2949.7599
42.6999,3024.2001
42.7219,2975.4039
42.7439,2764.066
42.7659,2700.3215
42.7879,2638.013
42.8099,2713.6936
42.8319,2526.1285
42.8539,2416.8316
42.8759,2319.0385
42.8979,2322.6304
42.9199,2280.1134
42.9419,2263.3412
42.9639,2341.2427
42.9859,2345.5841
43.0079,2294.6778
43.0299,2284.4366
43.0519,2250.1769
43.0739,2289.8802
43.0959,2273.6818
43.1179,2229.0618
43.1399,2273.48
43.1619,2290.0099
43.1839,2300.1726
43.2059,2314.9944
43.2279,2388.0469
43.2499,2311.4453
43.2719,2284.4352
43.2939,2323.9146
43.3159,2352.1678
43.3379,2264.339
43.3599,2224.3838
43.3819,2308.4335
43.4039,2263.2257
43.4259,2267.1395
43.4479,2241.1415
43.4699,2230.3453
43.4919,2245.3436
43.5139,2128.4398
43.5359,2203.7835
43.5579,2242.8883
43.5799,2144.9297
43.6019,2261.6341
43.6239,2231.2955
43.6459,2233.9144
43.6679,2264.4743
43.6899,2339.8249
43.7119,2311.8347
43.7339,2321.4004
43.7559,2368.0044
43.7779,2348.1946
43.7999,2302.6989
43.8219,2288.7042
43.8439,2354.9427
43.8659,2388.8337
43.8879,2337.165
43.9099,2325.6462
43.9319,2400.2186
43.9539,2390.3496
43.9759,2323.0133
43.9979,2375.3366
44.0199,2514.4608
44.0419,2662.6818
44.0639,2719
44.0859,2608.8341
44.1079,2517.649
44.1299,2537.2105
44.1519,2563.2848
44.1739,2544.5839
44.1959,2493.5387
44.2179,2437.1787
44.2399,2445.3851
44.2619,2440.3007
44.2839,2449.9967
44.3059,2402.628
44.3279,2358.5186
44.3499,2373.2764
44.3719,2366.7521
44.3939,2343.8357
44.4159,2370.6757
44.4379,2395.708
44.4599,2371.6798
44.4819,2333.6774
44.5039,2306.733
44.5259,2334.5734
44.5479,2407.0258
44.5699,2408.4601
44.5919,2383.2025
44.6139,2406.4269
44.6359,2389.0899
44.6579,2501.9857
44.6799,2505.4714
44.7019,2523.534
44.7239,2592.5239
44.7459,2487.7134
44.7679,2608.6333
44.7899,2752.384
44.8119,2773.3053
44.8339,2741.2713
44.8559,2805.3178
44.8779,2876.1782
44.8999,2904.2715
44.9219,2964.0563
44.9439,2858.3679
44.9659,2875.4688
44.9879,2813.505
45.0099,2698.9362
45.0319,2726.7773
45.0539,2738.7067
45.0759,2665.6252
45.0979,2620.0914
45.1199,2599.8467
45.1419,2500.4276
45.1639,2475.4158
45.1859,2449.1318
45.2079,2447.6951
45.2299,2422.4304
45.2519,2350.8936
45.2739,2301.8387
45.2959,2296.5253
45.3179,2333.2711
45.3399,2245.8922
45.3619,2237.7527
45.3839,2311.2783
45.4059,2240.8343
45.4279,2303.0321
45.4499,2230.008
45.4719,2246.1311
45.4939,2220.3305
45.5159,2238.6258
45.5379,2249.661
45.5599,2278.6237
45.5819,2195.9327
45.6039,2126.0911
45.6259,2148.1621
45.6479,2153.9014
45.6699,2179.5112
45.6919,2180.2819
45.7139,2247.5794
45.7359,2204.3872
45.7579,2130.2038
45.7799,2182.2724
45.8019,2221.5548
45.8239,2261.2995
45.8459,2239.4698
45.8679,2221.3069
45.8899,2289.1833
45.9119,2291.0995
45.9339,2237.4572
45.9559,2236.4293
45.9779,2225.7728
45.9999,2186.606
46.0219,2196.1447
46.0439,2244.9446
46.0659,2254.6489
46.0879,2296.0416
46.1099,2448.7096
46.1319,2681.4094
46.1539,2885.0449
46.1759,3008.0618
46.1979,2757.0478
46.2199,2480.3414
46.2419,2432.8781
46.2639,2468.361
46.2859,2350.6336
46.3079,2198.5192
46.3299,2073.034
46.3519,1919.1233
46.3739,1910.2509
46.3959,1906.499
46.4179,1818.7135
46.4399,1767.5382
46.4619,1771.1357
46.4839,1819.2745
46.5059,1781.8002
46.5279,1792.6304
46.5499,1744.0529
46.5719,1784.2111
46.5939,1777.9793
46.6159,1803.0591
46.6379,1810.6578
46.6599,1767.0579
46.6819,1737.9085
46.7039,1799.7102
46.7259,1745.4403
46.7479,1742.9291
46.7699,1727.0669
46.7919,1729.4334
46.8139,1683.03
46.8359,1822.0353
46.8579,1803.6823
46.8799,1781.5603
46.9019,1744.5282
46.9239,1778.1504
46.9459,1768.4427
46.9679,1810.7417
46.9899,1768.4004
47.0119,1811.5693
47.0339,1810.1517
47.0559,1877.8246
47.0779,1910.475
47.0999,1949.6846
47.1219,2023.5223
47.1439,2063.969
47.1659,2027.9691
47.1879,1931.4965
47.2099,1897.1088
47.2319,1846.4899
47.2539,1895.4553
47.2759,1886.8434
47.2979,1835.6234
47.3199,1793.2606
47.3419,1708.0532
47.3639,1702.5711
47.3859,1675.413
47.4079,1707.7628
47.4299,1734.051
47.4519,1695.5106
47.4739,1699.6227
47.4959,1723.9275
47.5179,1698.3885
47.5399,1695.0397
47.5619,1684.0512
47.5839,1692.3574
47.6059,1715.8025
47.6279,1714.6847
47.6499,1672.1906
47.6719,1672.2228
47.6939,1670.8799
47.7159,1659.3619
47.7379,1670.2478
47.7599,1711.3286
47.7819,1722.2831
47.8039,1700.3008
47.8259,1699.6736
47.8479,1708.3329
47.8699,1716.0502
47.8919,1743.4554
47.9139,1675.0182
47.9359,1625.9867
47.9579,1679.4762
47.9799,1690.0673
48.0019,1684.41
48.0239,1672.0884
48.0459,1604.2544
48.0679,1640.3513
48.0899,1737.9266
48.1119,1753.8023
48.1339,1678.5749
48.1559,1654.8358
48.1779,1734.3347
48.1999,1740.9498
48.2219,1732.2045
48.2439,1733.5207
48.2659,1670.9142
48.2879,1646.1632
48.3099,1651.0167
48.3319,1710.6994
48.3539,1736.9352
48.3759,1668.6246
48.3979,1716.6492
48.4199,1667.5027
48.4419,1690.6235
48.4639,1608.2076
48.4859,1651.8202
48.5079,1643.1229
48.5299,1613
48.5519,1615.8729
48.5739,1683.5168
48.5959,1585.885
48.6179,1609.1967
48.6399,1613.3688
48.6619,1619.59
48.6839,1627.1721
48.7059,1629.295
48.7279,1636.0931
48.7499,1672.6874
48.7719,1692.9158
48.7939,1662.5548
48.8159,1692.5059
48.8379,1601.7013
48.8599,1664.0842
48.8819,1697.6865
48.9039,1726.6716
48.9259,1743.3984
48.9479,1781.8683
48.9699,1782.346
48.9919,1753.1267
49.0139,1724.949
49.0359,1729.6921
49.0579,1695.3952
49.0799,1694.9058
49.1019,1685.6515
49.1239,1602.3407
49.1459,1622.0583
49.1679,1645.6827
49.1899,1599.0441
49.2119,1578.5708
49.2339,1560.8072
49.2559,1553.357
49.2779,1585.8802
49.2999,1606.7094
49.3219,1560.3094
49.3439,1501.2714
49.3659,1517.6167
49.3879,1551.9839
49.4099,1579.2577
49.4319,1606.0945
49.4539,1628.8408
49.4759,1644.2852
49.4979,1627.3676
49.5199,1609
49.5419,1633.3119
49.5639,1607.5184
49.5859,1615.7082
49.6079,1681.9427
49.6299,1788.1214
49.6519,1889.1478
49.6739,2060.8887
49.6959,2192.4629
49.7179,2419.7799
49.7399,2512.8879
49.7619,2301.1326
49.7839,2064.0789
49.8059,1957.3754
49.8279,1949.1525
49.8499,2001.6728
49.8719,1935.0271
49.8939,1736.301
49.9159,1609.4377
49.9379,1613.1722
49.9599,1608.0162
49.9819,1546.5926
50.0039,1532.1765
50.0259,1504.4188
50.0479,1571.9354
50.0699,1613.3925
50.0919,1559.5312
50.1139,1566.9293
50.1359,1530.4182
50.1579,1567.8389
50.1799,1513.9245
50.2019,1515.5389
50.2239,1459.2151
50.2459,1475.1741
50.2679,1497.3619
50.2899,1468.5014
50.3119,1529.7259
50.3339,1426.1968
50.3559,1451.5645
50.3779,1480.2332
50.3999,1516.9105
50.4219,1510.4943
50.4439,1437.7331
50.4659,1462.6323
50.4879,1476.8681
50.5099,1433.3892
50.5319,1408.0951
50.5539,1440.3764
50.5759,1414.1596
50.5979,1479.4464
50.6199,1487.2624
50.6419,1559.0028
50.6639,1511.2717
50.6859,1469.7057
50.7079,1429.925
50.7299,1463.8356
50.7519,1432.7586
50.7739,1436.3128
50.7959,1442.3504
50.8179,1427.8958
50.8399,1445.8452
50.8619,1456.52
50.8839,1451.8119
50.9059,1504.3011
50.9279,1538.1862
50.9499,1503.9909
50.9719,1499.6021
50.9939,1515.3398
51.0159,1483.7225
51.0379,1482.6544
51.0599,1433.8085
51.0819,1462.6135
51.1039,1449.1814
51.1259,1456.5104
51.1479,1452.6439
51.1699,1451.3217
51.1919,1457.9728
51.2139,1445.4937
51.2359,1434.5987
51.2579,1399.1326
51.2799,1408.2829
51.3019,1460.6285
51.3239,1436.1958
51.3459,1455.3259
51.3679,1444.715
51.3899,1438.0877
51.4119,1476.0837
51.4339,1465.2152
51.4559,1413.2825
51.4779,1423.3502
51.4999,1412.6503
51.5219,1405.3875
51.5439,1411.0516
51.5659,1414.7847
51.5879,1467.0091
51.6099,1449.8002
51.6319,1444.5295
51.6539,1448
51.6759,1434.3628
51.6979,1426.1504
51.7199,1457.0705
51.7419,1453.288
51.7639,1472.5901
51.7859,1474.7237
51.8079,1449.8902
51.8299,1401.9732
51.8519,1414.5429
51.8739,1378.929
51.8959,1442.5623
51.9179,1441.2861
51.9399,1382.9776
51.9619,1479.7497
51.9839,1475.0545
52.0059,1368.4971
52.0279,1495.5994
52.0499,1430.4736
52.0719,1381.0146
52.0939,1468.2127
52.1159,1384.1171
52.1379,1417.3863
52.1599,1381.1021
52.1819,1452.5485
52.2039,1416.2113
52.2259,1385.8821
52.2479,1413.2316
52.2699,1419.1319
52.2919,1447.4379
52.3139,1415.7719
52.3359,1415.2636
52.3579,1435.6464
52.3799,1501.8115
52.4019,1472.3866
52.4239,1500.1755
52.4459,1488.041
52.4679,1427.998
52.4899,1416.0355
52.5119,1454.3672
52.5339,1515.568
52.5559,1456.2405
52.5779,1458.9379
52.5999,1439.2738
52.6219,1430.8435
52.6439,1417.8482
52.6659,1439.7571
52.6879,1457.0268
52.7099,1492.2939
52.7319,1461.6203
52.7539,1467.5078
52.7759,1514.7859
52.7979,1487.4583
52.8199,1510.1255
52.8419,1545.6797
52.8639,1558.0396
52.8859,1563.6552
52.9079,1596.9734
52.9299,1587.4582
52.9519,1557.8876
52.9739,1581.9356
52.9959,1579.6386
53.0179,1557.1272
53.0399,1574.5755
53.0619,1608.9198
53.0839,1713.4252
53.1059,1730.0598
53.1279,1709.8442
53.1499,1743.9619
53.1719,1777.6815
53.1939,1792.8742
53.2159,1846.8219
53.2379,1924.2717
53.2599,1964.8516
53.2819,1973.9646
53.3039,2027.0387
53.3259,1997.9643
53.3479,1965.7743
53.3699,1917.9417
53.3919,1909.0286
53.4139,1930.4868
53.4359,1897.7318
53.4579,1791.3564
53.4799,1720.429
53.5019,1779.5559
53.5239,1743.1147
53.5459,1708.7433
53.5679,1677.931
53.5899,1693.5006
53.6119,1713.1063
53.6339,1693.8603
53.6559,1861.9
53.6779,1935.4338
53.6999,2052.1618
53.7219,1990.3418
53.7439,1843.2265
53.7659,1751.3517
53.7879,1723.436
53.8099,1741.947
53.8319,1759.3565
53.8539,1700.5592
53.8759,1618.0882
53.8979,1632.9843
53.9199,1602.0837
53.9419,1524.4547
53.9639,1622.5183
53.9859,1527.699
54.0079,1505.3867
54.0299,1555.3804
54.0519,1524.8069
54.0739,1551.3007
54.0959,1517.9868
54.1179,1518.0745
54.1399,1463.6844
54.1619,1483.6372
54.1839,1488.0425
54.2059,1437.0149
54.2279,1470.4498
54.2499,1471.1308
54.2719,1474.8494
54.2939,1427.6655
54.3159,1393.7671
54.3379,1434.3246
54.3599,1457.1715
54.3819,1453.3108
54.4039,1478.5223
54.4259,1519.1741
54.4479,1498.7758
54.4699,1430.7878
54.4919,1456.3309
54.5139,1468.6678
54.5359,1486.379
54.5579,1469.1739
54.5799,1451.3397
54.6019,1439.938
54.6239,1443.1619
54.6459,1478.5921
54.6679,1480.9733
54.6899,1470.6865
54.7119,1472.1174
54.7339,1466.5163
54.7559,1473.3893
54.7779,1469.888
54.7999,1476.503
54.8219,1465.1494
54.8439,1482.487
54.8659,1514.4779
54.8879,1485.7687
54.9099,1443.3254
54.9319,1459.6816
54.9539,1488.2459
54.9759,1453.1128
54.9979,1407.5928
55.0199,1419.157
55.0419,1462.9933
55.0639,1468.9424
55.0859,1496.7996
55.1079,1464.7229
55.1299,1412.1326
55.1519,1454.2693
55.1739,1468.7453
55.1959,1449.0678
55.2179,1425.3244
55.2399,1478.1532
55.2619,1454.6192
55.2839,1464.9741
55.3059,1454.7157
55.3279,1469.1505
55.3499,1452.1238
55.3719,1454.4027
55.3939,1437.6341
55.4159,1466.1899
55.4379,1439.343
55.4599,1481.071
55.4819,1445.5691
55.5039,1421.1784
55.5259,1421.7257
55.5479,1377.7992
55.5699,1409.4594
55.5919,1353.3832
55.6139,1385.4358
55.6359,1418.0405
55.6579,1423.9115
55.6799,1419.027
55.7019,1423.7796
55.7239,1391.5014
55.7459,1366.8497
55.7679,1394.6629
55.7899,1427.9172
55.8119,1375.2482
55.8339,1369.9993
55.8559,1421.0528
55.8779,1362.4739
55.8999,1354.3573
55.9219,1323.8849
55.9439,1325.45
55.9659,1443.2463
55.9879,1350.0001
56.0099,1370.7158
56.0319,1360.9948
56.0539,1317.8056
56.0759,1367.4534
56.0979,1387.0719
56.1199,1418.9338
56.1419,1439.9567
56.1639,1420.315
56.1859,1411.2008
56.2079,1449.6604
56.2299,1458.1513
56.2519,1448.7966
56.2739,1465.0619
56.2959,1486.4384
56.3179,1517.8847
56.3399,1480.27
56.3619,1497.2686
56.3839,1493.5012
56.4059,1441.992
56.4279,1442.7495
56.4499,1437.6456
56.4719,1433.2635
56.4939,1472.3862
56.5159,1422.9954
56.5379,1384.4639
56.5599,1366.4587
56.5819,1386.4456
56.6039,1407.5541
56.6259,1407.3844
56.6479,1363.774
56.6699,1363.6001
56.6919,1396.3599
56.7139,1377.8258
56.7359,1401.7505
56.7579,1384.0419
56.7799,1346.2994
56.8019,1363.129
56.8239,1331.0051
56.8459,1354.0977
56.8679,1361.2506
56.8899,1378.4948
56.9119,1394.0487
56.9339,1383.877
56.9559,1333.7215
56.9779,1342.3512
56.9999,1301.0238
57.0219,1286.4661
57.0439,1309.9426
57.0659,1283.167
57.0879,1303.4677
57.1099,1327.0768
57.1319,1307.6316
57.1539,1275.0028
57.1759,1295.5724
57.1979,1342.2913
57.2199,1361.1146
57.2419,1299.6899
57.2639,1275.0476
57.2859,1311.3493
57.3079,1241.861
57.3299,1287.1527
57.3519,1338.4358
57.3739,1347.646
57.3959,1287.9422
57.4179,1206.7873
57.4399,1340.9033
57.4619,1310.3342
57.4839,1322.0099
57.5059,1324.5984
57.5279,1232.0007
57.5499,1272.1303
57.5719,1372.0707
57.5939,1351.868
57.6159,1306.5335
57.6379,1313.0885
57.6599,1314.3024
57.6819,1315.1907
57.7039,1304.5104
57.7259,1334.2312
57.7479,1362.6513
57.7699,1345.1388
57.7919,1380.7782
57.8139,1377.0551
57.8359,1400.1375
57.8579,1455.3087
57.8799,1430.6565
57.9019,1369.5959
57.9239,1366.0824
57.9459,1323.4856
57.9679,1302.2713
57.9899,1295
58.0119,1308.6826
58.0339,1330.4689
58.0559,1294.1188
58.0779,1265.3284
58.0999,1292.8485
58.1219,1353.8712
58.1439,1346.0082
58.1659,1292.1707
58.1879,1276.6199
58.2099,1306.1079
58.2319,1282.1904
58.2539,1299
58.2759,1284.7619
58.2979,1279.8025
58.3199,1284.6705
58.3419,1273
58.3639,1278.9293
58.3859,1290.064
58.4079,1293.9626
58.4299,1269.106
58.4519,1299.0673
58.4739,1305.333
58.4959,1329.9459
58.5179,1377.3816
58.5399,1388.5168
58.5619,1331.3181
58.5839,1329.255
58.6059,1353.6293
58.6279,1394.4206
58.6499,1348.3417
58.6719,1355.3017
58.6939,1379.0354
58.7159,1362.731
58.7379,1357.8122
58.7599,1343.9778
58.7819,1333.6342
58.8039,1394.8937
58.8259,1431.2921
58.8479,1497.1606
58.8699,1687.6726
58.8919,1975.3052
58.9139,2174.4334
58.9359,2487.9032
58.9579,2457.8402
58.9799,2141.258
59.0019,1906.236
59.0239,1681.7246
59.0459,1774.393
59.0679,1867.4306
59.0899,1898.593
59.1119,1759.6399
59.1339,1560.2174
59.1559,1390.4639
59.1779,1287.0104
59.1999,1257.9709
59.2219,1246.292
59.2439,1271.6294
59.2659,1348.8489
59.2879,1289.3718
59.3099,1325.2262
59.3319,1336.2219
59.3539,1368.9616
59.3759,1353.0569
59.3979,1430.1286
59.4199,1390.73
59.4419,1369.951
59.4639,1414.2801
59.4859,1480.5312
59.5079,1527.467
59.5299,1512.7941
59.5519,1437.2151
59.5739,1386.7011
59.5959,1402.1137
59.6179,1422.7077
59.6399,1378.8978
59.6619,1375.747
59.6839,1311.5691
59.7059,1276.9982
59.7279,1303.6454
59.7499,1297.1741
59.7719,1310.3505
59.7939,1281.6605
59.8159,1289.9566
59.8379,1386.4155
59.8599,1331.268
59.8819,1324.8375
59.9039,1293.3172
59.9259,1309.6019
59.9479,1329.7184
59.9699,1325.2151
59.9919,1309.3202
60.0139,1331.0797
60.0359,1306.5936
60.0579,1303.9197
60.0799,1354.2449
60.1019,1375.5576
60.1239,1389.5226
60.1459,1363.047
60.1679,1354.5729
60.1899,1344.2013
60.2119,1324.8983
60.2339,1320.6843
60.2559,1296.1193
60.2779,1289.0708
60.2999,1332.7245
60.3219,1351.4158
60.3439,1309.1826
60.3659,1250.4697
60.3879,1278.6154
60.4099,1277.1414
60.4319,1224.5784
60.4539,1198.7207
60.4759,1214.5473
60.4979,1215.764
60.5199,1174.2741
60.5419,1191.4132
60.5639,1167.3931
60.5859,1164.0325
60.6079,1125.3758
60.6299,1179.4075
60.6519,1164.6984
60.6739,1167.3393
60.6959,1162.2335
60.7179,1168.0925
60.7399,1147.8185
60.7619,1199.7004
60.7839,1238.922
60.8059,1177.9023
60.8279,1187.8969
60.8499,1199.8299
60.8719,1196.5236
60.8939,1204.1682
60.9159,1175.5643
60.9379,1162.7463
60.9599,1167.6667
60.9819,1128.7737
61.0039,1158.009
61.0259,1180.5891
61.0479,1141.2555
61.0699,1208.5454
61.0919,1133.2737
61.1139,1201.3598
61.1359,1178.7328
61.1579,1130.0926
61.1799,1164.9896
61.2019,1151.0797
61.2239,1149.4256
61.2459,1124.4169
61.2679,1129.7479
61.2899,1155.6239
61.3119,1228.8649
61.3339,1169.8795
61.3559,1230.2949
61.3779,1130.2549
61.3999,1167.6724
61.4219,1156.3434
61.4439,1197.9921
61.4659,1189.0443
61.4879,1204.3802
61.5099,1215.6447
61.5319,1191.1213
61.5539,1227.6191
61.5759,1170.7316
61.5979,1175.6018
61.6199,1187.9613
61.6419,1213.3019
61.6639,1237.9546
61.6859,1281.7001
61.7079,1280.1012
61.7299,1298.2274
61.7519,1372.5973
61.7739,1554.7537
61.7959,1783.0934
61.8179,1881.38
61.8399,1953.8271
61.8619,1925.9199
61.8839,1915.91
61.9059,1917.6091
61.9279,1810.9007
61.9499,1751.5515
61.9719,1706.331
61.9939,1671.9557
62.0159,1650.1576
62.0379,1527.0315
62.0599,1414.8449
62.0819,1387.0019
62.1039,1355.9059
62.1259,1351.7051
62.1479,1284.9792
62.1699,1255.8546
62.1919,1240.1591
62.2139,1207.229
62.2359,1251.2438
62.2579,1260.2506
62.2799,1238.0437
62.3019,1201.455
62.3239,1201.4234
62.3459,1285.3476
62.3679,1275.7908
62.3899,1236.4689
62.4119,1205.3302
62.4339,1234.8616
62.4559,1231.1754
62.4779,1195.2987
62.4999,1252.9955
62.5219,1285.3423
62.5439,1233.4299
62.5659,1278.3936
62.5879,1332.5533
62.6099,1285.4245
62.6319,1290.1785
62.6539,1356.1419
62.6759,1232.1399
62.6979,1280.2501
62.7199,1291.5664
62.7419,1315.5006
62.7639,1291.2875
62.7859,1341.1242
62.8079,1248.2409
62.8299,1288.5351
62.8519,1276.1687
62.8739,1388.9534
62.8959,1313.8958
62.9179,1310.4986
62.9399,1320.6197
62.9619,1276
62.9839,1275.6239
63.0059,1270.6499
63.0279,1267.9981
63.0499,1279.6904
63.0719,1297.3927
63.0939,1277.3306
63.1159,1317.1079
63.1379,1344.9044
63.1599,1313.0331
63.1819,1332.7256
63.2039,1323.5106
63.2259,1363.2626
63.2479,1360.6503
63.2699,1349.3356
63.2919,1398.7203
63.3139,1390.1265
63.3359,1363.2069
63.3579,1413.7482
63.3799,1395.3318
63.4019,1380.3548
63.4239,1366.1368
63.4459,1423.6674
63.4679,1494.8797
63.4899,1430.0931
63.5119,1423.0594
63.5339,1486.7375
63.5559,1458.0998
63.5779,1413.8409
63.5999,1452.4525
63.6219,1466.345
63.6439,1487.8485
63.6659,1502.0626
63.6879,1471.4966
63.7099,1505.0032
63.7319,1489.5915
63.7539,1485.9276
63.7759,1519.3053
63.7979,1494.3902
63.8199,1492.184
63.8419,1560.4577
63.8639,1601.5988
63.8859,1572.9378
63.9079,1574.1093
63.9299,1557.8129
63.9519,1590.9788
63.9739,1612.6902
63.9959,1642.515
64.0179,1645.3715
64.0399,1618.0397
64.0619,1616.4524
64.0839,1566.1973
64.1059,1625.5463
64.1279,1620.2814
64.1499,1595.2802
64.1719,1583.8716
64.1939,1593.0197
64.2159,1611.507
64.2379,1606.6902
64.2599,1551.9849
64.2819,1543.6028
64.3039,1609.2025
64.3259,1641.3246
64.3479,1590.5774
64.3699,1643.7172
64.3919,1637.7629
64.4139,1655.1053
64.4359,1672.183
64.4579,1611.9879
64.4799,1622.3093
64.5019,1649.8526
64.5239,1669.7764
64.5459,1714.603
64.5679,1705.4778
64.5899,1741.954
64.6119,1830.644
64.6339,1940.679
64.6559,2041.2056
64.6779,2062.9567
64.6999,2062.9
64.7219,2112.8403
64.7439,2016.4681
64.7659,1851.7437
64.7879,1920.3981
64.8099,1987.8523
64.8319,1949.8167
64.8539,1890.9974
64.8759,1944.9646
64.8979,1858.1944
64.9199,1809.8043
64.9419,1799.0148
64.9639,1791.6634
64.9859,1752.8529
65.0079,1806.1077
65.0299,1749.0769
65.0519,1762.0896
65.0739,1727.9443
65.0959,1805.1169
65.1179,1848.104
65.1399,1807.572
65.1619,1790.5224
65.1839,1829.9567
65.2059,1835.9815
65.2279,1864.6578
65.2499,1860.8819
65.2719,1835.4462
65.2939,1787.6133
65.3159,1719.5949
65.3379,1669.6363
65.3599,1707.7835
65.3819,1761.4485
65.4039,1759.3469
65.4259,1729.4837
65.4479,1678.0103
65.4699,1626.1053
65.4919,1621.0427
65.5139,1553.2885
65.5359,1504.0178
65.5579,1561.7615
65.5799,1583.8238
65.6019,1595.8853
65.6239,1596.9422
65.6459,1562.7511
65.6679,1553.4253
65.6899,1571.7848
65.7119,1570.6164
65.7339,1556.1071
65.7559,1542.3937
65.7779,1539.1809
65.7999,1537.7576
65.8219,1589.5225
65.8439,1554.4051
65.8659,1510.9783
65.8879,1556.6257
65.9099,1542.0833
65.9319,1509.6665
65.9539,1478.0264
65.9759,1536.2128
65.9979,1518.0086
66.0199,1482.6296
66.0419,1459.5427
66.0639,1515.494
66.0859,1505.9438
66.1079,1460.6133
66.1299,1488.6453
66.1519,1528.9604
66.1739,1443.2551
66.1959,1517.5812
66.2179,1460.4391
66.2399,1543.1131
66.2619,1408.9451
66.2839,1455.5652
66.3059,1464.7247
66.3279,1465.9435
66.3499,1444.0176
66.3719,1450.7444
66.3939,1480.4102
66.4159,1532.6168
66.4379,1488.5817
66.4599,1403.759
66.4819,1389.823
66.5039,1385.6718
66.5259,1425.2981
66.5479,1450.8542
66.5699,1492.8094
66.5919,1510.9074
66.6139,1478.348
66.6359,1464.8088
66.6579,1475.8576
66.6799,1515.866
66.7019,1549.6172
66.7239,1498.8824
66.7459,1475.3451
66.7679,1461.675
66.7899,1461.6442
66.8119,1474.162
66.8339,1432.346
66.8559,1430.8839
66.8779,1467.1884
66.8999,1409.7346
66.9219,1419.6961
66.9439,1415.0266
66.9659,1408.805
66.9879,1390.3563
67.0099,1430.0796
67.0319,1416.5908
67.0539,1411.774
67.0759,1433.2523
67.0979,1444.2311
67.1199,1423.2823
67.1419,1379.9824
67.1639,1365.0632
67.1859,1408.1474
67.2079,1444.0391
67.2299,1373.9746
67.2519,1367.4752
67.2739,1349.4957
67.2959,1340.5976
67.3179,1320.5034
67.3399,1289.4687
67.3619,1283.4516
67.3839,1324.2037
67.4059,1334.997
67.4279,1307.1212
67.4499,1312.953
67.4719,1333.913
67.4939,1327.6715
67.5159,1318.9641
67.5379,1295.9379
67.5599,1295.6353
67.5819,1326.8301
67.6039,1260.582
67.6259,1245.7455
67.6479,1266.4902
67.6699,1265.1475
67.6919,1299.6866
67.7139,1280.5455
67.7359,1250.2078
67.7579,1273.6954
67.7799,1332.2993
67.8019,1357.2036
67.8239,1287.529
67.8459,1275.707
67.8679,1253.8848
67.8899,1262.6904
67.9119,1207.182
67.9339,1303.452
67.9559,1324.853
67.9779,1229.8175
67.9999,1247.4707
68.0219,1298.2736
68.0439,1304.9022
68.0659,1260.1915
68.0879,1224.4905
68.1099,1296.1843
68.1319,1273.4114
68.1539,1265.2546
68.1759,1235.7226
68.1979,1295.2806
68.2199,1272.9677
68.2419,1208.8312
68.2639,1272.3479
68.2859,1248.2332
68.3079,1279.1558
68.3299,1257.7341
68.3519,1182.3804
68.3739,1235.7885
68.3959,1221.4188
68.4179,1208.2223
68.4399,1223.1831
68.4619,1248.6013
68.4839,1182.8075
68.5059,1224.4042
68.5279,1240.7966
68.5499,1263.6216
68.5719,1274.9309
68.5939,1249.9384
68.6159,1287.6827
68.6379,1247.7244
68.6599,1221.937
68.6819,1273.8454
68.7039,1248.2106
68.7259,1255.4421
68.7479,1234.9341
68.7699,1263.0693
68.7919,1206.9618
68.8139,1227.3294
68.8359,1226.2089
68.8579,1219.7139
68.8799,1221.7385
68.9019,1244.3651
68.9239,1275.0619
68.9459,1237.3241
68.9679,1195.6023
68.9899,1193.817
69.0119,1203.8198
69.0339,1213.1552
69.0559,1219.6507
69.0779,1257.1977
69.0999,1222.1839
69.1219,1174.469
69.1439,1213.3711
69.1659,1248.2389
69.1879,1246.1652
69.2099,1240.2497
69.2319,1176.8456
69.2539,1224.3519
69.2759,1280.9621
69.2979,1237.8345
69.3199,1225.6859
69.3419,1197.8689
69.3639,1237.1254
69.3859,1274.2596
69.4079,1214.2281
69.4299,1202.6186
69.4519,1203.7344
69.4739,1223.837
69.4959,1184.7769
69.5179,1231.0359
69.5399,1235.3371
69.5619,1229.5005
69.5839,1215.5117
69.6059,1186.2053
69.6279,1182.1485
69.6499,1238.9591
69.6719,1252.1883
69.6939,1156.4163
69.7159,1225.4829
69.7379,1176.8108
69.7599,1214.0696
69.7819,1183.5809
69.8039,1127.5292
69.8259,1171.2737
69.8479,1163.3495
69.8699,1204.427
69.8919,1124.8191
69.9139,1207.0625
69.9359,1179.3872
69.9579,1218.8026
69.9799,1226.8865
70.0019,1260.8665
70.0239,1225.7491
70.0459,1196
70.0679,1196.626
70.0899,1217.0356
70.1119,1257.7564
70.1339,1222.9549
70.1559,1245.0587
70.1779,1204.6816
70.1999,1236.6926
70.2219,1210.0708
70.2439,1214.3243
70.2659,1199.4753
70.2879,1255.5324
70.3099,1245.7697
70.3319,1205.3086
70.3539,1198.0692
70.3759,1269.7113
70.3979,1315.0884
70.4199,1284.4686
70.4419,1240.6109
70.4639,1279.2877
70.4859,1287.5989
70.5079,1284.4733
70.5299,1260.9252
70.5519,1234.3158
70.5739,1211.1507
70.5959,1238.7531
70.6179,1235.4849
70.6399,1262.6905
70.6619,1256.8157
70.6839,1230.5112
70.7059,1271.3894
70.7279,1296.1006
70.7499,1303.8502
70.7719,1300.232
70.7939,1373.5588
70.8159,1438.8131
70.8379,1575.8684
70.8599,1742.1491
70.8819,1939.0723
70.9039,2115.5004
70.9259,2207.9141
70.9479,2140.7219
70.9699,1948.4682
70.9919,1732.3717
71.0139,1612.5615
71.0359,1621.0325
71.0579,1634.0325
71.0799,1700.6284
71.1019,1725.5131
71.1239,1681.9854
71.1459,1547.6627
71.1679,1429.5526
71.1899,1413.536
71.2119,1408.5746
71.2339,1322.2442
71.2559,1325.4064
71.2779,1320.3135
71.2999,1265.5616
71.3219,1275.1408
71.3439,1331.9871
71.3659,1356.3393
71.3879,1328.1837
71.4099,1326.0443
71.4319,1274.7356
71.4539,1323.968
71.4759,1293.9235
71.4979,1214.9553
71.5199,1302.2986
71.5419,1306.4404
71.5639,1298.7876
71.5859,1223.1126
71.6079,1280.8923
71.6299,1334.2805
71.6519,1320.642
71.6739,1287.3735
71.6959,1283.115
71.7179,1369.8845
71.7399,1370.1317
71.7619,1298.507
71.7839,1314.8497
71.8059,1351.7203
71.8279,1281.4057
71.8499,1306.713
71.8719,1330.4694
71.8939,1314.9731
71.9159,1263.9427
71.9379,1309.8843
71.9599,1358.4294
71.9819,1374.3073
72.0039,1292.6158
72.0259,1259.6258
72.0479,1311.069
72.0699,1278.9603
72.0919,1378.748
72.1139,1405.4642
72.1359,1409.2795
72.1579,1368.578
72.1799,1338.1485
72.2019,1333.1986
72.2239,1328.4248
72.2459,1344.489
72.2679,1380.8344
72.2899,1372.8316
72.3119,1344.8792
72.3339,1377.544
72.3559,1418.0458
72.3779,1423.7649
72.3999,1406.9261
72.4219,1414.1509
72.4439,1438.6923
72.4659,1393.118
72.4879,1415.403
72.5099,1442.4385
72.5319,1428.6759
72.5539,1414.6725
72.5759,1426.838
72.5979,1471.8567
72.6199,1460.973
72.6419,1435.659
72.6639,1448.5836
72.6859,1445.5044
72.7079,1447.0315
72.7299,1461.4839
72.7519,1486.8438
72.7739,1493.5525
72.7959,1475.6311
72.8179,1488.9117
72.8399,1573.8861
72.8619,1564.3908
72.8839,1527.4248
72.9059,1561.78
72.9279,1605.339
72.9499,1525.7543
72.9719,1528.3953
72.9939,1522.9496
73.0159,1541.3572
73.0379,1578.7671
73.0599,1571.0913
73.0819,1604.1419
73.1039,1571.1496
73.1259,1577.4663
73.1479,1644.0344
73.1699,1607.0832
73.1919,1639.0313
73.2139,1638.7698
73.2359,1639.8171
73.2579,1691.5392
73.2799,1649.2164
73.3019,1677.4673
73.3239,1685.852
73.3459,1668.7137
73.3679,1681.7789
73.3899,1736.4448
73.4119,1730.3834
73.4339,1734.4809
73.4559,1819.2449
73.4779,1778.159
73.4999,1871.9357
73.5219,1769.1842
73.5439,1805.9471
73.5659,1811.9361
73.5879,1876.9684
73.6099,1872.543
73.6319,1918.3133
73.6539,1933.1832
73.6759,1995.5758
73.6979,2087.4388
73.7199,2117.967
73.7419,2034.1331
73.7639,2087.6302
73.7859,2072.6872
73.8079,2054.4897
73.8299,2061.772
73.8519,2078.0616
73.8739,2047.6112
73.8959,2098.7708
73.9179,1940.0932
73.9399,1903.2345
73.9619,1910.5923
73.9839,1959.3774
74.0059,1929.2417
74.0279,1894.7332
74.0499,1828.9187
74.0719,1740.1724
74.0939,1726.9018
74.1159,1720.4951
74.1379,1677.2482
74.1599,1711.8321
74.1819,1645.5843
74.2039,1618.0792
74.2259,1685.5735
74.2479,1565.3882
74.2699,1527.4872
74.2919,1543.8957
74.3139,1483.3795
74.3359,1487.2611
74.3579,1510.6098
74.3799,1480.0549
74.4019,1418.3628
74.4239,1423.266
74.4459,1437.535
74.4679,1439.668
74.4899,1413.3862
74.5119,1360.3826
74.5339,1356.0977
74.5559,1402.4515
74.5779,1399.6586
74.5999,1382.3053
74.6219,1350.4087
74.6439,1376.3377
74.6659,1388.3361
74.6879,1354.3499
74.7099,1379.5815
74.7319,1340.6897
74.7539,1317.066
74.7759,1301.7766
74.7979,1284.9203
74.8199,1322.581
74.8419,1289.8924
74.8639,1280.8231
74.8859,1256.2879
74.9079,1267.8463
74.9299,1348.679
74.9519,1309.7906
74.9739,1307.7986
74.9959,1246.9641
75.0179,1232.9922
75.0399,1286.697
75.0619,1274.3096
75.0839,1344.1775
75.1059,1330.1817
75.1279,1285.4452
75.1499,1286.8496
75.1719,1224.3182
75.1939,1277.8765
75.2159,1312.2716
75.2379,1340.7976
75.2599,1261.7738
75.2819,1266.4052
75.3039,1308.2033
75.3259,1309.0295
75.3479,1309.9828
75.3699,1299.054
75.3919,1272.1993
75.4139,1298.941
75.4359,1295.9361
75.4579,1294.9736
75.4799,1311.8722
75.5019,1244.1702
75.5239,1266.4901
75.5459,1337.3843
75.5679,1312.2114
75.5899,1314.59
75.6119,1313.5278
75.6339,1286.1253
75.6559,1346.2657
75.6779,1381.3522
75.6999,1404.2067
75.7219,1360.1651
75.7439,1325.8407
75.7659,1270.5756
75.7879,1337.2879
75.8099,1374.8909
75.8319,1375.8975
75.8539,1365.8056
75.8759,1393.9998
75.8979,1361.3283
75.9199,1346.2095
75.9419,1371.3406
75.9639,1438.636
75.9859,1470.8937
76.0079,1453.3755
76.0299,1411.7114
76.0519,1341.2033
76.0739,1306.0667
76.0959,1312.4354
76.1179,1351.6727
76.1399,1348.6901
76.1619,1310.0597
76.1839,1288.3496
76.2059,1315.4182
76.2279,1322.2269
76.2499,1262.9288
76.2719,1220.0137
76.2939,1228.3394
76.3159,1217.867
76.3379,1213.2205
76.3599,1201.5907
76.3819,1193.5724
76.4039,1207.8638
76.4259,1165.5354
76.4479,1158.4914
76.4699,1173.1711
76.4919,1173.8658
76.5139,1175.6342
76.5359,1184.4047
76.5579,1153.4245
76.5799,1100.774
76.6019,1127.7369
76.6239,1180.6969
76.6459,1191.4601
76.6679,1123.7359
76.6899,1133.8951
76.7119,1100.8197
76.7339,1165.2563
76.7559,1197.9248
76.7779,1185.9291
76.7999,1205.8202
76.8219,1133.789
76.8439,1077.3449
76.8659,1110.5441
76.8879,1140.0793
76.9099,1156.8319
76.9319,1148.5869
76.9539,1213.0034
76.9759,1160.4288
76.9979,1188.2805
77.0199,1124.148
77.0419,1084.5485
77.0639,1133.7825
77.0859,1129.3697
77.1079,1071.035
77.1299,1164.8806
77.1519,1176.9066
77.1739,1068.2956
77.1959,1167.6036
77.2179,1143.074
77.2399,1181.4381
77.2619,1191.0618
77.2839,1173.1627
77.3059,1157.395
77.3279,1120.3185
77.3499,1188.3424
77.3719,1222.9973
77.3939,1255.0773
77.4159,1201.6119
77.4379,1172.9648
77.4599,1199.0471
77.4819,1190.9253
77.5039,1191.7578
77.5259,1162.7868
77.5479,1199.9595
77.5699,1226.9112
77.5919,1197.4392
77.6139,1213.2586
77.6359,1197.8183
77.6579,1162.4394
77.6799,1154.9978
77.7019,1163.3153
77.7239,1139.8218
77.7459,1169.5171
77.7679,1167.7096
77.7899,1171.0332
77.8119,1134.1715
77.8339,1107.5042
77.8559,1108.7266
77.8779,1139.697
77.8999,1121.9572
77.9219,1117.7374
77.9439,1112.968
77.9659,1124.1448
77.9879,1130.6414
78.0099,1093.9093
78.0319,1068.0354
78.0539,1080.3541
78.0759,1124.4133
78.0979,1143.6164
78.1199,1099.9858
78.1419,1092.2943
78.1639,1125.4574
78.1859,1149.5036
78.2079,1132.8714
78.2299,1100.3627
78.2519,1147.8904
78.2739,1138.6869
78.2959,1093.6252
78.3179,1093.6314
78.3399,1103.5807
78.3619,1106
78.3839,1107.3579
78.4059,1090.0274
78.4279,1060.1901
78.4499,1078.2018
78.4719,1099.9219
78.4939,1068.4599
78.5159,1090.6247
78.5379,1097.41
78.5599,1072.6812
78.5819,1080.2125
78.6039,1116.8769
78.6259,1111.1592
78.6479,1082.3798
78.6699,1084.5487
78.6919,1165.1466
78.7139,1122.8836
78.7359,1165.6616
78.7579,1200.5253
78.7799,1140.9858
78.8019,1166.8498
78.8239,1126.5351
78.8459,1131.4337
78.8679,1109.2152
78.8899,1171.4694
78.9119,1129.1983
78.9339,1066.8531
78.9559,1096.9545
78.9779,1128.0108
78.9999,1129.9708
79.0219,1167.5304
79.0439,1076.5295
79.0659,1141.9011
79.0879,1064.8911
79.1099,1106.9895
79.1319,1159.644
79.1539,1143.6163
79.1759,1114.2998
79.1979,1099.994
79.2199,1093.4251
79.2419,1126.8838
79.2639,1100.5642
79.2859,1085.5843
79.3079,1118.5134
79.3299,1121.1737
79.3519,1069.6267
79.3739,1047.6962
79.3959,1063.4394
79.4179,1111.6727
79.4399,1117.5533
79.4619,1084.3747
79.4839,1113.8397
79.5059,1148.098
79.5279,1099.9123
79.5499,1104.0655
79.5719,1148.5513
79.5939,1128.7141
79.6159,1129.066
79.6379,1085.0294
79.6599,1100.9965
79.6819,1127.4097
79.7039,1107.4957
79.7259,1112.8554
79.7479,1098.9439
79.7699,1097.2528
79.7919,1129.2796
79.8139,1158.8673
79.8359,1153.1769
79.8579,1166.1084
79.1979,1106.1217
79.2199,1074.5749
79.2419,1043.4909
79.2639,1074.7585
79.2859,1054.9763
79.3079,1041.4893
79.3299,1074.1086
79.3519,1126.0221
79.3739,1106.9328
79.3959,1076.7741
79.4179,1117.0091
79.4399,1142.5039
79.4619,1124.5632
79.4839,1083.0409
79.5059,1059.7704
79.5279,1081.9634
79.5499,1040.387
79.5719,1091.3208
79.5939,1078.3591
79.6159,1075.1279
79.6379,1071.9554
79.6599,1120.2854
