Pos. [°2?],Intensity [Counts]
3.7819,17177
3.8039,16783.0211
3.8259,16618.2724
3.8479,16374.1121
3.8699,15933.0492
3.8919,15905.116
3.9139,15466.5074
3.9359,15437.5157
3.9579,14803.1613
3.9799,14853.2212
4.0019,14618.8476
4.0239,14306.0777
4.0459,13874.6018
4.0679,13639.9607
4.0899,13473.5683
4.1119,13394.8363
4.1339,13119.0187
4.1559,12692.8653
4.1779,12668.5133
4.1999,12425.3894
4.2219,12373.1839
4.2439,12174.0339
4.2659,11769.7385
4.2879,11901.263
4.3099,11612.8112
4.3319,11320.3019
4.3539,11129.3117
4.3759,10768.7035
4.3979,10846.5595
4.4199,10700.5044
4.4419,10439.2596
4.4639,10155.5797
4.4859,10118.6588
4.5079,9911.4675
4.5299,9767.2419
4.5519,9648.8717
4.5739,9609.3097
4.5959,9440.6721
4.6179,9221.4621
4.6399,9103.9086
4.6619,9021.0197
4.6839,8804.2925
4.7059,8674.1976
4.7279,8623.1219
4.7499,8391.35
4.7719,8330.3053
4.7939,8355.292
4.8159,8243.1249
4.8379,8009.9587
4.8599,7913.0905
4.8819,7881.6794
4.9039,7697.1696
4.9259,7516.1603
4.9479,7504.4341
4.9699,7467.9203
4.9919,7279.4621
5.0139,7222.9607
5.0359,7082.7743
5.0579,7026.8417
5.0799,6950.2311
5.1019,6823.3923
5.1239,6732.0187
5.1459,6667.2773
5.1679,6460.9646
5.1899,6521.4209
5.2119,6537.8205
5.2339,6420.4307
5.2559,6444.2335
5.2779,6276.9764
5.2999,6200.4439
5.3219,6058.7817
5.3439,6043.1087
5.3659,6096.2124
5.3879,5884.0717
5.4099,5903.5674
5.4319,5848.0811
5.4539,5834.5929
5.4759,5863.3387
5.4979,5784.469
5.5199,5710.1175
5.5419,5609.6716
5.5639,5595.0575
5.5859,5467.1504
5.6079,5365.1805
5.6299,5611.0619
5.6519,5430.6893
5.6739,5361.7679
5.6959,5387.9498
5.7179,5348.7955
5.7399,5353.6937
5.7619,5216.9381
5.7839,5288.3835
5.8059,5139.708
5.8279,5182.5885
5.8499,5244.0767
5.8719,5187.9233
5.8939,5139.1947
5.9159,5176.6681
5.9379,5004.5703
5.9599,4942.6593
5.9819,5001.6224
6.0039,5027.9651
6.0259,4966.1268
6.0479,4864.736
6.0699,4958.8791
6.0919,5030.649
6.1139,5014.4405
6.1359,4932.7217
6.1579,4909.3717
6.1799,4932.1288
6.2019,4862.4218
6.2239,4810.8879
6.2459,4832.5614
6.2679,4764.0556
6.2899,4786.0413
6.3119,4762.3451
6.3339,4777.766
6.3559,4850.2699
6.3779,4786.2842
6.3999,4772.5659
6.4219,4738.5074
6.4439,4717.6691
6.4659,4709.0413
6.4879,4654.205
6.5099,4682.355
6.5319,4706.1268
6.5539,4631.354
6.5759,4604.2434
6.5979,4587.8849
6.6199,4634.7788
6.6419,4659.4995
6.6639,4640.3899
6.6859,4556.5958
6.7079,4544.7173
6.7299,4597.4091
6.7519,4528.292
6.7739,4543.7709
6.7959,4508.7158
6.8179,4522.1623
6.8399,4436.1484
6.8619,4454.2635
6.8839,4461.8732
6.9059,4526.8063
6.9279,4559.3338
6.9499,4476.5398
6.9719,4454.911
6.9939,4399.5909
7.0159,4429.3732
7.0379,4399.0462
7.0599,4358.4081
7.0819,4282.82
7.1039,4297.3904
7.1259,4252.5103
7.1479,4300.4735
7.1699,4281.2153
7.1919,4421.913
7.2139,4265.4454
7.2359,4188.6401
7.2579,4259.3589
7.2799,4177.1607
7.3019,4281.2557
7.3239,4332.9641
7.3459,4287.4159
7.3679,4209.9277
7.3899,4189.2832
7.4119,4207.1962
7.4339,4211.5408
7.4559,4155.8933
7.4779,4197.8761
7.4999,4050.765
7.5219,4050.943
7.5439,4187.0221
7.5659,4056.8358
7.5879,4143.7798
7.6099,4171.0413
7.6319,4208.6234
7.6539,4126.2684
7.6759,4066.09
7.6979,4096.0098
7.7199,4120.7994
7.7419,4093.0619
7.7639,4009.1234
7.7859,4002.8102
7.8079,4006.1431
7.8299,4095.645
7.8519,4023.7478
7.8739,4010.6195
7.8959,4035.2989
7.9179,3915.9823
7.9399,3956.6903
7.9619,3933.7463
7.9839,3876.5025
8.0059,3900.1298
8.0279,3879.7513
8.0499,3893.0934
8.0719,3843.854
8.0939,3875.9086
8.1159,3884.264
8.1379,3893.8053
8.1599,3931.647
8.1819,3936.2163
8.2039,3853.9498
8.2259,3847.8309
8.2479,3916.8132
8.2699,3936
8.2919,3904.3004
8.3139,3843.0826
8.3359,3755.1327
8.3579,3815.1948
8.3799,3840.4287
8.4019,3759.8761
8.4239,3777.5389
8.4459,3843.5536
8.4679,3874.1799
8.4899,3794.172
8.5119,3723.1524
8.5339,3733.2655
8.5559,3791.034
8.5779,3761.0029
8.5999,3707.6386
8.6219,3751.3225
8.6439,3661.821
8.6659,3781.6668
8.6879,3788.9139
8.7099,3715.7699
8.7319,3734.7434
8.7539,3718.7778
8.7759,3764.7247
8.7979,3787.0236
8.8199,3674.1342
8.8419,3792.7149
8.8639,3712.2212
8.8859,3629.6902
8.9079,3688.9691
8.9299,3582.6017
8.9519,3695.7061
8.9739,3663.3628
8.9959,3646.1313
9.0179,3686.6372
9.0399,3539.0525
9.0619,3544.1976
9.0839,3574.8265
9.1059,3566.2556
9.1279,3621.2567
9.1499,3617.0049
9.1719,3623.4346
9.1939,3574.6372
9.2159,3603.297
9.2379,3659.2664
9.2599,3539.5899
9.2819,3447.7857
9.3039,3544.2783
9.3259,3518.2124
9.3479,3554.5782
9.3699,3600.6843
9.3919,3547.1947
9.4139,3541.2675
9.4359,3538.2704
9.4579,3543.8024
9.4799,3530.4813
9.5019,3491.3255
9.5239,3480.2699
9.5459,3506.7364
9.5679,3447.0925
9.5899,3522.7464
9.6119,3586.9739
9.6339,3490.3717
9.6559,3557.1666
9.6779,3473.06
9.6999,3459.8741
9.7219,3472.4425
9.7439,3523.3751
9.7659,3514.059
9.7879,3473.2123
9.8099,3448.6333
9.8319,3569.1824
9.8539,3579.9292
9.8759,3484.1853
9.8979,3443.356
9.9199,3494.4248
9.9419,3500.7129
9.9639,3518.8992
9.9859,3504.5604
10.0079,3459.4302
10.0299,3512.5615
10.0519,3544.7286
10.0739,3440.2625
10.0959,3450.9416
10.1179,3515.3982
10.1399,3566.9297
10.1619,3558.7187
10.1839,3561.062
10.2059,3616.0934
10.2279,3615.1578
10.2499,3640.0413
10.2719,3717.1982
10.2939,3824.9401
10.3159,3953.208
10.3379,3997.0118
10.3599,3890.6961
10.3819,3659.9232
10.4039,3557.7114
10.4259,3432.2487
10.4479,3337.2035
10.4699,3339.6215
10.4919,3352.2414
10.5139,3378.354
10.5359,3336.5054
10.5579,3298.4307
10.5799,3341.472
10.6019,3312.6784
10.6239,3267.6317
10.6459,3227.4425
10.6679,3260.8137
10.6899,3231.9056
10.7119,3240.8186
10.7339,3286.3147
10.7559,3320.6805
10.7779,3241.3215
10.7999,3224.7124
10.8219,3221.2006
10.8439,3276.7803
10.8659,3276.1691
10.8879,3220.7094
10.9099,3300.531
10.9319,3209.5029
10.9539,3201.9293
10.9759,3333.3731
10.9979,3201.7375
11.0199,3283.0683
11.0419,3211.8819
11.0639,3098.3555
11.0859,3188.0639
11.1079,3210.3627
11.1299,3091.945
11.1519,3141.7552
11.1739,3185.4631
11.1959,3095.2463
11.2179,3151.0413
11.2399,3200.1666
11.2619,3112.7787
11.2839,3100.4862
11.3059,3108.354
11.3279,3127.7847
11.3499,3213.4159
11.3719,3148.2994
11.3939,3155.4444
11.4159,3081.8648
11.4379,3130.8555
11.4599,3144.3819
11.4819,3075.7159
11.5039,3093.2389
11.5259,3079.1122
11.5479,3109.0913
11.5699,3014.8496
11.5919,3056.1731
11.6139,3030.4286
11.6359,3022.7803
11.6579,3077.7767
11.6799,3054.4362
11.7019,3106.7079
11.7239,3075.0732
11.7459,3052.4621
11.7679,3027.6888
11.7899,2991.5683
11.8119,3019.1097
11.8339,3129.826
11.8559,3171.6322
11.8779,3106.8741
11.8999,3049.0796
11.9219,3039.1908
11.9439,3061.1593
11.9659,3019.2005
11.9879,3030.3644
12.0099,3079.7434
12.0319,3125.9853
12.0539,3059.0274
12.0759,3048.6284
12.0979,3088.5664
12.1199,3164.4642
12.1419,3135.6224
12.1639,3065.7581
12.1859,3081.3688
12.2079,3098.1224
12.2299,3083.1652
12.2519,3074.0718
12.2739,3023.8731
12.2959,2977.4911
12.3179,2919.5575
12.3399,2921.4056
12.3619,3048.2007
12.3839,2992.9734
12.4059,3018.6313
12.4279,3025.6785
12.4499,3022.472
12.4719,2956.1676
12.4939,3018.7169
12.5159,2923.5746
12.5379,2939.3225
12.5599,2977.357
12.5819,3090.9706
12.6039,2964.4792
12.6259,3056.5694
12.6479,2971.4837
12.6699,2987.2773
12.6919,2960.6194
12.7139,3000.5969
12.7359,2939.8131
12.7579,2865.5045
12.7799,2964.053
12.8019,2900.2145
12.8239,3047.9734
12.8459,2969.4621
12.8679,2906.7341
12.8899,2947.2212
12.9119,2902.737
12.9339,2950.0885
12.9559,2965.0515
12.9779,2819.4957
12.9999,2982.405
13.0219,2900.003
13.0439,2926.8112
13.0659,2913.1652
13.0879,2945.177
13.1099,2939.997
13.1319,2860.6721
13.1539,2931.4396
13.1759,2953.0619
13.1979,2935.12
13.2199,2944.3554
13.2419,2903.707
13.2639,2935.0109
13.2859,2971.2035
13.3079,2964.6603
13.3299,3015.3048
13.3519,2984.9085
13.3739,2957.8987
13.3959,2986.7174
13.4179,3015.2684
13.4399,2978.3295
13.4619,2981.0904
13.4839,2916.3894
13.5059,2954.3787
13.5279,3019.4361
13.5499,3013.2006
13.5719,3032.4941
13.5939,3035.5457
13.6159,3036.7994
13.6379,3029.6932
13.6599,2980.0658
13.6819,2974.5841
13.7039,2980.1347
13.7259,2995.4445
13.7479,3106.4234
13.7699,3156.2753
13.7919,3066.169
13.8139,3109.5459
13.8359,3235.5522
13.8579,3181.8632
13.8799,3148.8142
13.9019,3213.9647
13.9239,3212.0221
13.9459,3294.0208
13.9679,3279.2133
13.9899,3353.9421
14.0119,3344.7802
14.0339,3337.825
14.0559,3401.4539
14.0779,3450.5841
14.0999,3586.9077
14.1219,3627.5536
14.1439,3647.7272
14.1659,3784.4259
14.1879,3826.764
14.2099,3952.068
14.2319,4095.3551
14.2539,4153.7228
14.2759,4148.7832
14.2979,4331.6511
14.3199,4378.4105
14.3419,4486.2656
14.3639,4541.7759
14.3859,4650.4445
14.4079,4505.401
14.4299,4433.3234
14.4519,4185.8651
14.4739,4038.7432
14.4959,3810.2505
14.5179,3548.5091
14.5399,3467.3392
14.5619,3402.643
14.5839,3338.0657
14.6059,3171.9705
14.6279,3120.2324
14.6499,2951.651
14.6719,2970.8141
14.6939,2946.0364
14.7159,2939.825
14.7379,2955.9852
14.7599,2897.0058
14.7819,2824.7718
14.8039,2699.6873
14.8259,2671.6136
14.8479,2698.8176
14.8699,2707.3452
14.8919,2732.7531
14.9139,2689.236
14.9359,2694.1592
14.9579,2623.5369
14.9799,2599.2767
15.0019,2559.9853
15.0239,2625.8437
15.0459,2662.5536
15.0679,2616.1636
15.0899,2554.2576
15.1119,2565.0723
15.1339,2524.994
15.1559,2503.358
15.1779,2559.768
15.1999,2533.8849
15.2219,2537.4849
15.2439,2576.316
15.2659,2516.9646
15.2879,2569.4086
15.3099,2597.5949
15.3319,2539.9276
15.3539,2492.8132
15.3759,2489.5177
15.3979,2478.7316
15.4199,2499.0275
15.4419,2516.2852
15.4639,2494.9336
15.4859,2396.9507
15.5079,2446.1241
15.5299,2513.0265
15.5519,2413.0972
15.5739,2414.9165
15.5959,2396.5692
15.6179,2458.5272
15.6399,2474.0098
15.6619,2423.6106
15.6839,2470.4514
15.7059,2493.3972
15.7279,2548.3157
15.7499,2518.6617
15.7719,2485.0138
15.7939,2571.5753
15.8159,2630.4194
15.8379,2725.7887
15.8599,2779.4337
15.8819,2817.4032
15.9039,2897.2857
15.9259,2845.8111
15.9479,2657.843
15.9699,2582.6302
15.9919,2479.7019
16.0139,2436.4867
16.0359,2522.5345
16.0579,2611.9647
16.0799,2552.6027
16.1019,2693.8743
16.1239,2808.8998
16.1459,2756.4699
16.1679,2780.3555
16.1899,2830.5399
16.2119,2616.7775
16.2339,2598.2596
16.2559,2480.7477
16.2779,2394.5692
16.2999,2349.2812
16.3219,2387.1975
16.3439,2254.4377
16.3659,2381.6714
16.3879,2242.3746
16.4099,2207.707
16.4319,2240.031
16.4539,2277.4601
16.4759,2219.116
16.4979,2165.1692
16.5199,2204.2626
16.5419,2229.5152
16.5639,2236.5276
16.5859,2267.357
16.6079,2293.1532
16.6299,2174.7464
16.6519,2229.3805
16.6739,2239.5074
16.6959,2265.4803
16.7179,2204.1562
16.7399,2121.0837
16.7619,2218.7207
16.7839,2248.2421
16.8059,2314.6075
16.8279,2178.2684
16.8499,2196.8673
16.8719,2244.3628
16.8939,2239.1603
16.9159,2220.8996
16.9379,2155.2999
16.9599,2178.2769
16.9819,2208.6371
17.0039,2184.5177
17.0259,2175.4071
17.0479,2161.7699
17.0699,2151.2714
17.0919,2140.7895
17.1139,2112.4454
17.1359,2113.1234
17.1579,2152.3373
17.1799,2182.2788
17.2019,2111.3882
17.2239,2057.4917
17.2459,2161.8851
17.2679,2249.4292
17.2899,2218.2634
17.3119,2172.497
17.3339,2156.4307
17.3559,2187.3491
17.3779,2206.2537
17.3999,2173.0245
17.4219,2186.6431
17.4439,2219.2876
17.4659,2128.3096
17.4879,2067.4267
17.5099,2146.363
17.5319,2156.996
17.5539,2192.2882
17.5759,2266.9868
17.5979,2186.2142
17.6199,2137.2271
17.6419,2126.5664
17.6639,2077.1494
17.6859,2021.2989
17.7079,1995.736
17.7299,2079.1781
17.7519,2014.2747
17.7739,1982.3776
17.7959,2033.0817
17.8179,2043.1583
17.8399,2074.5974
17.8619,2016.762
17.8839,2067.621
17.9059,1965.5338
17.9279,2012.5109
17.9499,2008.9302
17.9719,2087.7848
17.9939,2062.0393
18.0159,2003.8136
18.0379,2034.7611
18.0599,2070.1913
18.0819,1992.8544
18.1039,2077.8539
18.1259,1978.5181
18.1479,1946.5276
18.1699,2041.3835
18.1919,2048.5186
18.2139,2001.5595
18.2359,1993.1947
18.2579,1977.2135
18.2799,2032.2192
18.3019,1949.0443
18.3239,1988.5025
18.3459,1996.0709
18.3679,2059.5943
18.3899,2019.9361
18.4119,2017.3634
18.4339,2067.8052
18.4559,1988.0072
18.4779,1917.5173
18.4999,1980.5413
18.5219,1954.0049
18.5439,1973.1486
18.5659,2052.8288
18.5879,1971.637
18.6099,1914.5969
18.6319,1942.3185
18.6539,1898.4514
18.6759,1937.1843
18.6979,1947.0001
18.7199,1994.6038
18.7419,1986.4512
18.7639,1930.0811
18.7859,1925.1849
18.8079,1966.9218
18.8299,1932.4423
18.8519,1926.454
18.8739,1996.0718
18.8959,1954.5869
18.9179,1950.0247
18.9399,1958.8878
18.9619,1923.1534
18.9839,1930.3417
19.0059,1915.2133
19.0279,1904.0133
19.0499,1885.1405
19.0719,1913.4819
19.0939,1942.0354
19.1159,1946.974
19.1379,1946.7836
19.1599,1923.7625
19.1819,1942.5645
19.2039,1916.262
19.2259,1929.2125
19.2479,1903.673
19.2699,1876
19.2919,1930.5458
19.3139,1987.1318
19.3359,1968.5806
19.3579,1939.2566
19.3799,1936.5718
19.4019,1903.1209
19.4239,1822.0176
19.4459,1888.1476
19.4679,1928.6893
19.4899,1903.2949
19.5119,1904.4572
19.5339,1895.7945
19.5559,1904.3776
19.5779,1885.5506
19.5999,1855.0447
19.6219,1823.6637
19.6439,1862.0925
19.6659,1920.5743
19.6879,1913.8171
19.7099,1918.2911
19.7319,1911.7119
19.7539,1858.3716
19.7759,1868.0339
19.7979,1839.6155
19.8199,1828.3982
19.8419,1850.3668
19.8639,1951.4456
19.8859,1897.1651
19.9079,1857.028
19.9299,1860.3245
19.9519,1876.8998
19.9739,1929.7522
19.9959,1901.0747
20.0179,1852.584
20.0399,1838.9022
20.0619,1894.3353
20.0839,1904.0929
20.1059,1881.1996
20.1279,1883.6519
20.1499,1846.0472
20.1719,1868.2748
20.1939,1861.8751
20.2159,1883.8009
20.2379,1921.5182
20.2599,1925.408
20.2819,1899.5634
20.3039,1885.5486
20.3259,1835.9852
20.3479,1835.7509
20.3699,1889.2782
20.3919,1865.1353
20.4139,1917.1858
20.4359,1898.9549
20.4579,1947.1347
20.4799,1903.9896
20.5019,1878.5429
20.5239,1958.6422
20.5459,1997.4925
20.5679,1921.7295
20.5899,1874.0266
20.6119,1874.1283
20.6339,1885.3865
20.6559,1959.0335
20.6779,2041.6019
20.6999,2076.6081
20.7219,2004.5937
20.7439,1955.5325
20.7659,1991.1721
20.7879,1966.9232
20.8099,1912.0885
20.8319,1905.4091
20.8539,1914.6136
20.8759,1944.0576
20.8979,1901.1945
20.9199,1911.4962
20.9419,2002.7877
20.9639,1908.5449
20.9859,1839.2901
21.0079,1857.7345
21.0299,1889.7198
21.0519,1873.8731
21.0739,1843.1239
21.0959,1792.2511
21.1179,1853.2421
21.1399,1904.9528
21.1619,1913.8397
21.1839,1824.722
21.2059,1860.5134
21.2279,1822.5215
21.2499,1885.2597
21.2719,1869.5737
21.2939,1882.8614
21.3159,1871.6927
21.3379,1832.2448
21.3599,1784.6135
21.3819,1776
21.4039,1819.947
21.4259,1760.2634
21.4479,1782.9189
21.4699,1822.3983
21.4919,1879.7636
21.5139,1807.1267
21.5359,1719.0574
21.5579,1767.8703
21.5799,1837.0989
21.6019,1773.1415
21.6239,1779.6804
21.6459,1781.9607
21.6679,1793.9115
21.6899,1747.2311
21.7119,1794.5507
21.7339,1826.8555
21.7559,1854.1224
21.7779,1830.6469
21.7999,1770.7389
21.8219,1755.7532
21.8439,1783.5432
21.8659,1743.7493
21.8879,1804.0637
21.9099,1936.0667
21.9319,1841.4204
21.9539,1852.535
21.9759,1907.5763
21.9979,1932.5486
22.0199,1868.675
22.0419,1861.1858
22.0639,1853.1445
22.0859,1818.1119
22.1079,1739.0444
22.1299,1828.23
22.1519,1818.5212
22.1739,1830.1041
22.1959,1786.739
22.2179,1803.1977
22.2399,1810.6342
22.2619,1811.416
22.2839,1845.2232
22.3059,1810.7354
22.3279,1796.4794
22.3499,1827.3304
22.3719,1850.3156
22.3939,1822.1415
22.4159,1802.3261
22.4379,1835.8122
22.4599,1872.5562
22.4819,1905.2615
22.5039,1848.0157
22.5259,1856.3983
22.5479,1887.7674
22.5699,1871.055
22.5919,1829.9247
22.6139,1860.5371
22.6359,1922.8009
22.6579,1948.829
22.6799,1944.1214
22.7019,1933.9843
22.7239,1974.3732
22.7459,1973.4198
22.7679,2006.3959
22.7899,2043.9558
22.8119,2069.7434
22.8339,2089.4405
22.8559,2129.0989
22.8779,2113.8996
22.8999,2116.7468
22.9219,2143.3304
22.9439,2182.7479
22.9659,2218.2518
22.9879,2329.9427
23.0099,2365.7729
23.0319,2495.5583
23.0539,2580.9499
23.0759,2515.2953
23.0979,2606.191
23.1199,2642.4307
23.1419,2697.8644
23.1639,2803.6113
23.1859,2754.0618
23.2079,2673.613
23.2299,2726.0316
23.2519,2707.0398
23.2739,2576.6379
23.2959,2577.239
23.3179,2557.0531
23.3399,2567.9745
23.3619,2430.9614
23.3839,2455.2965
23.4059,2514.8172
23.4279,2476.0117
23.4499,2544.1742
23.4719,2521.0089
23.4939,2537.6065
23.5159,2429.9248
23.5379,2428.9431
23.5599,2474.7295
23.5819,2395.416
23.6039,2432.8166
23.6259,2438.8465
23.6479,2398.2611
23.6699,2425.1111
23.6919,2412.7361
23.7139,2496.5989
23.7359,2536.4168
23.7579,2487.8014
23.7799,2505.6329
23.8019,2575.4366
23.8239,2607.8148
23.8459,2663.9794
23.8679,2655.0529
23.8899,2585.0414
23.9119,2608.0928
23.9339,2582.2215
23.9559,2676.4924
23.9779,2629.779
23.9999,2750.7287
24.0219,2823.4692
24.0439,2946.7304
24.0659,3139.4409
24.0879,3393.291
24.1099,3840.6354
24.1319,4520.1042
24.1539,5196.2127
24.1759,6293.9185
24.1979,7967.1899
24.2199,10276.6042
24.2419,13795.0691
24.2639,18514.6519
24.2859,23809.1268
24.3079,26924.7517
24.3299,24177.1456
24.3519,18291.4149
24.3739,12972.292
24.3959,8169.1663
24.4179,5189.6991
24.4399,4179.756
24.4619,4061.948
24.4839,4072.9694
24.5059,3935.6309
24.5279,3732.4977
24.5499,3423.7614
24.5719,3150.3758
24.5939,2901.737
24.6159,2741.7938
24.6379,2658.8022
24.6599,2596.7969
24.6819,2582.3825
24.7039,2548.8716
24.7259,2563.1466
24.7479,2521.0702
24.7699,2541.0886
24.7919,2477.3007
24.8139,2391.9812
24.8359,2324.1975
24.8579,2387.2578
24.8799,2400.5546
24.9019,2302.87
24.9239,2331.7607
24.9459,2364.5998
24.9679,2293.7344
24.9899,2329.9146
25.0119,2240.8612
25.0339,2292.2332
25.0559,2209.0278
25.0779,2222.1367
25.0999,2168.5781
25.1219,2215.5724
25.1439,2128.4079
25.1659,2048.1415
25.1879,2152.3891
25.2099,2190.0305
25.2319,2160.5029
25.2539,2147.0511
25.2759,2099.0418
25.2979,2104.888
25.3199,2146.6376
25.3419,2133.3313
25.3639,2078.208
25.3859,2092.0657
25.4079,2024.4948
25.4299,2145.9202
25.4519,2089.8424
25.4739,2187.6912
25.4959,2188.3703
25.5179,2261.8811
25.5399,2324.0407
25.5619,2585.054
25.5839,3095.8324
25.6059,3586.069
25.6279,3656.4809
25.6499,3630.8096
25.6719,3311.8756
25.6939,3032.914
25.7159,2765.5451
25.7379,2456.7027
25.7599,2300.6503
25.7819,2204.633
25.8039,2102.9435
25.8259,2090.2211
25.8479,2027.5874
25.8699,2024.5783
25.8919,2084.5826
25.9139,2086.0688
25.9359,2107.184
25.9579,2162.7788
25.9799,2183.2803
26.0019,2236.8379
26.0239,2236.6208
26.0459,2187.6844
26.0679,2146.3263
26.0899,2056.7815
26.1119,2012.3279
26.1339,2024.2911
26.1559,2044.5
26.1779,2036.0206
26.1999,1961.9187
26.2219,1973.7406
26.2439,1994.5992
26.2659,1969.6844
26.2879,2051.3247
26.3099,2077.0097
26.3319,2073.3432
26.3539,2112.6461
26.3759,2132.1146
26.3979,2068.574
26.4199,2002.5102
26.4419,1944.1139
26.4639,1857.4806
26.4859,1862.2715
26.5079,1892.2365
26.5299,1895.1642
26.5519,1876.6902
26.5739,1866.3323
26.5959,1939.5823
26.6179,1961.9675
26.6399,1962.5408
26.6619,1949.6942
26.6839,1965.8747
26.7059,2007.3275
26.7279,2041.4066
26.7499,2017.8849
26.7719,2094.7268
26.7939,2085.1632
26.8159,2126.1741
26.8379,2164.7169
26.8599,2215.4524
26.8819,2268.9972
26.9039,2173.9492
26.9259,2133.3736
26.9479,2160.2169
26.9699,2181.0954
26.9919,2093.0303
27.0139,2258.4487
27.0359,2225.3092
27.0579,2312.3979
27.0799,2160.9573
27.1019,2218.23
27.1239,2186.8174
27.1459,2065.7434
27.1679,2073.5072
27.1899,1993.5241
27.2119,1975.1902
27.2339,1966.5909
27.2559,1955.554
27.2779,1913.3483
27.2999,2026.7917
27.3219,2068.7915
27.3439,2057.0843
27.3659,2189.0808
27.3879,2273.6418
27.4099,2417.5876
27.4319,2697.3975
27.4539,2801.0797
27.4759,2796.8287
27.4979,2686.7785
27.5199,2565.458
27.5419,2461.3982
27.5639,2389.2794
27.5859,2248.4885
27.6079,2153.3434
27.6299,2063.53
27.6519,2017.0922
27.6739,1970.7966
27.6959,2037.7131
27.7179,2053.752
27.7399,2013.332
27.7619,2057.7945
27.7839,2051.2187
27.8059,2061.5134
27.8279,2066.6892
27.8499,2063.5704
27.8719,2076.9822
27.8939,2073.6078
27.9159,2162.3105
27.9379,2261.2214
27.9599,2297.5708
27.9819,2331.6491
28.0039,2373.9086
28.0259,2427.3109
28.0479,2487.1805
28.0699,2702.7086
28.0919,2912.2328
28.1139,2893.4521
28.1359,2735.4288
28.1579,2607.1916
28.1799,2548.1381
28.2019,2477.0529
28.2239,2472.8698
28.2459,2496.3471
28.2679,2607.7511
28.2899,2660.7689
28.3119,2698.6353
28.3339,2641.6016
28.3559,2606.438
28.3779,2411.2364
28.3999,2328.9262
28.4219,2206.805
28.4439,2109.5166
28.4659,2119.6697
28.4879,2023.4319
28.5099,1976.8062
28.5319,2064.6728
28.5539,2106.6726
28.5759,2072.6592
28.5979,2008.0913
28.6199,2098.0558
28.6419,2031.1109
28.6639,2075.0709
28.6859,2111.1446
28.7079,2175.1004
28.7299,2129.345
28.7519,2197.276
28.7739,2281.8615
28.7959,2395.1669
28.8179,2356.5368
28.8399,2371.9922
28.8619,2425.1125
28.8839,2600.2894
28.9059,2536.6031
28.9279,2687.8718
28.9499,2753.0839
28.9719,2886.1139
28.9939,2811.7466
29.0159,2939.6837
29.0379,2876.9865
29.0599,2966.6176
29.0819,2782.8346
29.1039,2664.0057
29.1259,2561.3892
29.1479,2475.7399
29.1699,2440.693
29.1919,2343.0338
29.2139,2302.9637
29.2359,2331.0398
29.2579,2272.0144
29.2799,2165.3999
29.3019,2214.2713
29.3239,2196.0487
29.3459,2189.7855
29.3679,2142.7605
29.3899,2107.0824
29.4119,2087.0755
29.4339,2201.8645
29.4559,2251.7803
29.4779,2228.0323
29.4999,2176.4189
29.5219,2189.3275
29.5439,2169.7167
29.5659,2155.1683
29.5879,2180.8863
29.6099,2158.7188
29.6319,2161.442
29.6539,2157.0029
29.6759,2180.8605
29.6979,2247.0837
29.7199,2322.2745
29.7419,2394.7101
29.7639,2515.7693
29.7859,2557.7019
29.8079,2544.9352
29.8299,2525.5544
29.8519,2454.7167
29.8739,2438.6982
29.8959,2394.3572
29.9179,2409.3542
29.9399,2340.2233
29.9619,2176.6624
29.9839,2042.0012
30.0059,1948.227
30.0279,1912.378
30.0499,1895.1652
30.0719,1780.3261
30.0939,1772.3059
30.1159,1781.4513
30.1379,1837.424
30.1599,1750.9279
30.1819,1834.8794
30.2039,1808.9831
30.2259,1868.4801
30.2479,1932.093
30.2699,1928.6283
30.2919,1982.5611
30.3139,2006.6991
30.3359,2133.46
30.3579,2053.746
30.3799,2170.0018
30.4019,2221.654
30.4239,2226
30.4459,2214.3422
30.4679,2273.9062
30.4899,2294.7414
30.5119,2549.9475
30.5339,2589.7562
30.5559,2756.7708
30.5779,2747.5014
30.5999,3033.9761
30.6219,3116.6167
30.6439,3285.5606
30.6659,3366.3103
30.6879,3629.7216
30.7099,3600.1598
30.7319,3811.2871
30.7539,4064.2498
30.7759,4503.7114
30.7979,4743.6305
30.8199,5273.7938
30.8419,5724.9522
30.8639,6853.2415
30.8859,8561.9616
30.9079,10895.1747
30.9299,14025.5444
30.9519,18326.6724
30.9739,25871.5172
30.9959,40025.2331
31.0179,63138.1741
31.0399,97336.9915
31.0619,136831.2458
31.0839,145905.0639
31.1059,114143.7507
31.1279,87112.6391
31.1499,71055.4436
31.1719,44821.6823
31.1939,20822.6082
31.2159,10337.1409
31.2379,6977.9672
31.2599,5729.8094
31.2819,5094.481
31.3039,4726.2071
31.3259,4410.6013
31.3479,4237.1192
31.3699,4043.9315
31.3919,3815.8409
31.4139,3718.6213
31.4359,3594.2296
31.4579,3375.2443
31.4799,3228.227
31.5019,3165.5219
31.5239,3216.8215
31.5459,3385.2078
31.5679,3393.5499
31.5899,3249.8649
31.6119,3110.1216
31.6339,2971.4893
31.6559,2763.3814
31.6779,2569.8266
31.6999,2423.774
31.7219,2291.4048
31.7439,2268.4991
31.7659,2269.4129
31.7879,2357.3302
31.8099,2367.1778
31.8319,2444.3219
31.8539,2555.8714
31.8759,2722.0481
31.8979,2918.6376
31.9199,3198.28
31.9419,3723.0643
31.9639,4575.7013
31.9859,6218.2354
32.0079,8187.07
32.0299,9605.0707
32.0519,10065.355
32.0739,9861.8233
32.0959,8940.6657
32.1179,7310.0894
32.1399,5653.5965
32.1619,4427.3425
32.1839,3497.644
32.2059,2807.2128
32.2279,2609.4274
32.2499,2500.0145
32.2719,2486.3323
32.2939,2699.7174
32.3159,2954.1987
32.3379,3371.4985
32.3599,3587.114
32.3819,3531.3843
32.4039,3530.9907
32.4259,3489.8583
32.4479,3444.1341
32.4699,3582.1377
32.4919,3605.5984
32.5139,4081.1527
32.5359,4585.4984
32.5579,4772.1308
32.5799,5225.537
32.6019,5696.0431
32.6239,6269.237
32.6459,8721.5298
32.6679,11168.853
32.6899,8451.0731
32.7119,6156.8208
32.7339,6268.6785
32.7559,5279.5105
32.7779,3697.8725
32.7999,3175.5992
32.8219,3299.0324
32.8439,3233.7101
32.8659,3127.9755
32.8879,3110.367
32.9099,2945.0141
32.9319,2685.587
32.9539,2499.0588
32.9759,2415.5283
32.9979,2324.521
33.0199,2195.6676
33.0419,2029.6862
33.0639,1941.1378
33.0859,1824.6194
33.1079,1811.2154
33.1299,1807.7718
33.1519,1749.7668
33.1739,1696.7413
33.1959,1705.657
33.2179,1705.4925
33.2399,1686.9357
33.2619,1677.3892
33.2839,1659.916
33.3059,1632.9811
33.3279,1632.099
33.3499,1675
33.3719,1685.6294
33.3939,1684.1248
33.4159,1643.8612
33.4379,1591.1513
33.4599,1627.4825
33.4819,1604.3714
33.5039,1535.1862
33.5259,1582.603
33.5479,1564.0588
33.5699,1501.7482
33.5919,1557.9816
33.6139,1573.9999
33.6359,1520.2255
33.6579,1585.0239
33.6799,1582.8981
33.7019,1581.0325
33.7239,1597.1937
33.7459,1575.0855
33.7679,1590.0866
33.7899,1613.3
33.8119,1558.9261
33.8339,1554.6333
33.8559,1607.716
33.8779,1629.7699
33.8999,1590.6774
33.9219,1512.3843
33.9439,1621.549
33.9659,1519.5444
33.9879,1546.4077
34.0099,1594.7317
34.0319,1605.4012
34.0539,1571.3254
34.0759,1522.6857
34.0979,1588.3434
34.1199,1558.8229
34.1419,1597.3895
34.1639,1639.9057
34.1859,1474.326
34.2079,1556.8748
34.2299,1637.286
34.2519,1574.4727
34.2739,1678.292
34.2959,1662.5769
34.3179,1741.2579
34.3399,1851.8922
34.3619,1810.3087
34.3839,1777.6653
34.4059,1646.1829
34.4279,1661.9356
34.4499,1642.9881
34.4719,1615.1017
34.4939,1613.1821
34.5159,1634.8742
34.5379,1518.7288
34.5599,1585.6819
34.5819,1577.1869
34.6039,1584.6931
34.6259,1526.1483
34.6479,1490.9279
34.6699,1573.7792
34.6919,1658.6108
34.7139,1566.1572
34.7359,1559.1978
34.7579,1630.5224
34.7799,1671.6876
34.8019,1639.2154
34.8239,1646.4674
34.8459,1629.5882
34.8679,1658.1858
34.8899,1620.227
34.9119,1572.8121
34.9339,1538.0058
34.9559,1562.4693
34.9779,1599.988
34.9999,1571.8452
35.0219,1609.6923
35.0439,1659.4535
35.0659,1691.3539
35.0879,1707.5085
35.1099,1774.2018
35.1319,1841.2523
35.1539,1827.5259
35.1759,1767.6513
35.1979,1761.9971
35.2199,1844.3617
35.2419,1848.4462
35.2639,1817.2965
35.2859,1789.1582
35.3079,1802.9456
35.3299,1704.3033
35.3519,1700.2299
35.3739,1727.3008
35.3959,1614.3786
35.4179,1580.2361
35.4399,1597.5551
35.4619,1621.2744
35.4839,1694.7382
35.5059,1768.0405
35.5279,1772.0162
35.5499,1776.7277
35.5719,1885.7196
35.5939,1880.3568
35.6159,1817.1798
35.6379,1715.2809
35.6599,1671.9468
35.6819,1622.6105
35.7039,1578.7929
35.7259,1602.478
35.7479,1573.6439
35.7699,1590.651
35.7919,1537.4571
35.8139,1638.3887
35.8359,1658.2645
35.8579,1707.7789
35.8799,1793.1403
35.9019,1739.4689
35.9239,1624.0041
35.9459,1644.2075
35.9679,1694.0906
35.9899,1721.8408
36.0119,1781.7378
36.0339,1738.6831
36.0559,1616.8451
36.0779,1611.8269
36.0999,1599.2218
36.1219,1452.1712
36.1439,1476.2299
36.1659,1410.2773
36.1879,1405.3553
36.2099,1334.3834
36.2319,1301.6978
36.2539,1363.0353
36.2759,1345.4632
36.2979,1379.8368
36.3199,1370.966
36.3419,1352.8033
36.3639,1352.4624
36.3859,1424.0148
36.4079,1461.4054
36.4299,1534.6852
36.4519,1467.1105
36.4739,1434.5478
36.4959,1471.4016
36.5179,1471.5399
36.5399,1465.4648
36.5619,1396.6863
36.5839,1417.5135
36.6059,1473.8388
36.6279,1467.5543
36.6499,1444.9294
36.6719,1482.2437
36.6939,1457.1987
36.7159,1435.0234
36.7379,1393.592
36.7599,1422.093
36.7819,1461.0974
36.8039,1442.988
36.8259,1364.4904
36.8479,1358.0356
36.8699,1366.8838
36.8919,1330.5177
36.9139,1319.3657
36.9359,1337.5631
36.9579,1362.6745
36.9799,1358.4336
37.0019,1313.8356
37.0239,1296.7228
37.0459,1320.4337
37.0679,1312.1091
37.0899,1296.9567
37.1119,1309.9027
37.1339,1306.3352
37.1559,1280.9252
37.1779,1333.4929
37.1999,1310.3808
37.2219,1322.5793
37.2439,1278.4776
37.2659,1296.247
37.2879,1286.9483
37.3099,1248.9321
37.3319,1319.3366
37.3539,1359.8545
37.3759,1313.283
37.3979,1276.9203
37.4199,1297.1697
37.4419,1347.4869
37.4639,1379.2577
37.4859,1399.768
37.5079,1319.6236
37.5299,1357.832
37.5519,1464.9448
37.5739,1458.0235
37.5959,1512.0464
37.6179,1410.5631
37.6399,1426.478
37.6619,1458.7031
37.6839,1458.1785
37.7059,1374.1531
37.7279,1314.9895
37.7499,1321.7965
37.7719,1332.8865
37.7939,1331.8877
37.8159,1276.6399
37.8379,1388.6724
37.8599,1342.1363
37.8819,1394.233
37.9039,1381.5856
37.9259,1409.9215
37.9479,1461.3753
37.9699,1371.6991
37.9919,1366.8608
38.0139,1355.4947
38.0359,1384.2609
38.0579,1313.5839
38.0799,1271.4845
38.1019,1316.5543
38.1239,1244.8323
38.1459,1221.2673
38.1679,1193.6005
38.1899,1239.6785
38.2119,1243.5835
38.2339,1232.4426
38.2559,1249.3992
38.2779,1234.6459
38.2999,1234.9265
38.3219,1290.0482
38.3439,1316.2253
38.3659,1312.3094
38.3879,1252.3561
38.4099,1278.8466
38.4319,1265.9823
38.4539,1264.414
38.4759,1287.3408
38.4979,1300.8377
38.5199,1286.2182
38.5419,1325.3229
38.5639,1397.7035
38.5859,1376.4443
38.6079,1374.3802
38.6299,1409.9116
38.6519,1435.4023
38.6739,1523.5737
38.6959,1625.8364
38.7179,1697.0101
38.7399,1757.6889
38.7619,1733.1207
38.7839,1643.1585
38.8059,1617.0207
38.8279,1630.5796
38.8499,1576.5415
38.8719,1499.1208
38.8939,1441.5574
38.9159,1416.9695
38.9379,1410.1534
38.9599,1329.5926
38.9819,1271.3578
39.0039,1296.2209
39.0259,1274.0352
39.0479,1262.6205
39.0699,1286.4455
39.0919,1270.2772
39.1139,1250.6479
39.1359,1214.6759
39.1579,1241.4367
39.1799,1298.0257
39.2019,1282.6105
39.2239,1238.1592
39.2459,1238.7581
39.2679,1214.585
39.2899,1214.8643
39.3119,1241.5016
39.3339,1262.3845
39.3559,1222.1429
39.3779,1194.7138
39.3999,1188.4031
39.4219,1192.5575
39.4439,1284.456
39.4659,1271.406
39.4879,1304.1417
39.5099,1338.6628
39.5319,1279.6763
39.5539,1223.811
39.5759,1266.892
39.5979,1382.6361
39.6199,1345.3362
39.6419,1315.3116
39.6639,1293.5244
39.6859,1241.23
39.7079,1216.6358
39.7299,1264.5851
39.7519,1270.3289
39.7739,1265.7306
39.7959,1277.4704
39.8179,1257.2743
39.8399,1253.9771
39.8619,1304.9332
39.8839,1333.2936
39.9059,1384.0986
39.9279,1443.2609
39.9499,1429.7142
39.9719,1534.9403
39.9939,1590.2192
40.0159,1554.9159
40.0379,1555.1743
40.0599,1560.6258
40.0819,1423.5605
40.1039,1401.8901
40.1259,1370.9953
40.1479,1438.1476
40.1699,1442.871
40.1919,1392.6238
40.2139,1356.2743
40.2359,1346.5639
40.2579,1345.3215
40.2799,1342.2537
40.3019,1356.4346
40.3239,1368.4007
40.3459,1413.2127
40.3679,1435.7186
40.3899,1412.7602
40.4119,1456.2701
40.4339,1515.7524
40.4559,1532.2595
40.4779,1478.3773
40.4999,1510.9827
40.5219,1576.2655
40.5439,1526.7785
40.5659,1511.6776
40.5879,1551.2656
40.6099,1554.9203
40.6319,1527.787
40.6539,1522.1977
40.6759,1567.3984
40.6979,1560.5318
40.7199,1597.6645
40.7419,1745.5168
40.7639,1809.3225
40.7859,1748.0332
40.8079,1713.8849
40.8299,1736.4347
40.8519,1768.3128
40.8739,1818.1949
40.8959,1819.2998
40.9179,1826.7041
40.9399,1849.9898
40.9619,1872.2095
40.9839,1850.3381
41.0059,1866.0974
41.0279,1829.136
41.0499,1753.3164
41.0719,1754.8334
41.0939,1689.5042
41.1159,1755.0706
41.1379,1641.8196
41.1599,1657.4175
41.1819,1634.2615
41.2039,1738.9428
41.2259,1742.645
41.2479,1774.6083
41.2699,1740.1857
41.2919,1658.6315
41.3139,1755.728
41.3359,1705.0544
41.3579,1775.5046
41.3799,1741.0216
41.4019,1747.0712
41.4239,1863.2897
41.4459,1903.4778
41.4679,1875.3307
41.4899,1980.4531
41.5119,1918.1082
41.5339,1932.829
41.5559,1951.1037
41.5779,1955.829
41.5999,1973.7077
41.6219,1909.9364
41.6439,1994.3516
41.6659,2019.3745
41.6879,1967.9572
41.7099,1824.3361
41.7319,1763.3731
41.7539,1737.5661
41.7759,1685.7597
41.7979,1700.5664
41.8199,1679.9211
41.8419,1624.6213
41.8639,1592.9674
41.8859,1576.1004
41.9079,1598.7905
41.9299,1593.5694
41.9519,1610.2256
41.9739,1564.0066
41.9959,1545.7039
42.0179,1616.8948
42.0399,1644.4486
42.0619,1635.2415
42.0839,1553.823
42.1059,1539.7119
42.1279,1557.8586
42.1499,1549.3606
42.1719,1527.5607
42.1939,1539.1503
42.2159,1508.5826
42.2379,1515.241
42.2599,1539.9057
42.2819,1508.1216
42.3039,1431.7451
42.3259,1454.1891
42.3479,1504.5546
42.3699,1468.6704
42.3919,1410.8848
42.4139,1427.5685
42.4359,1478.6014
42.4579,1493.5693
42.4799,1508.1191
42.5019,1576.1675
42.5239,1655.1182
42.5459,1733.8606
42.5679,1750.6248
42.5899,1905.8149
42.6119,2223.7986
42.6339,2784.9588
42.6559,3600.3509
42.6779,4919.2269
42.6999,6794.8058
42.7219,8263.7946
42.7439,8468.091
42.7659,7087.8165
42.7879,5655.1727
42.8099,5202.8518
42.8319,5312.7081
42.8539,4436.8549
42.8759,3039.3503
42.8979,2258.7895
42.9199,1886.9488
42.9419,1735.9967
42.9639,1715.6578
42.9859,1590.4332
43.0079,1544.0618
43.0299,1548.4179
43.0519,1468.2003
43.0739,1486.7956
43.0959,1502.4617
43.1179,1515.6933
43.1399,1529.8417
43.1619,1449.0306
43.1839,1480.1328
43.2059,1490
43.2279,1490.8329
43.2499,1512.7021
43.2719,1525.6878
43.2939,1515.0214
43.3159,1452.1391
43.3379,1560.2603
43.3599,1475.3081
43.3819,1416.8669
43.4039,1332.5799
43.4259,1382.6941
43.4479,1360.2508
43.4699,1373.3845
43.4919,1369.6203
43.5139,1322.4189
43.5359,1319.9888
43.5579,1331.6666
43.5799,1323.0487
43.6019,1339.417
43.6239,1376.8778
43.6459,1448.6256
43.6679,1522.4392
43.6899,1563.0806
43.7119,1535.4364
43.7339,1503.0767
43.7559,1506.9883
43.7779,1478.4775
43.7999,1430.4576
43.8219,1477.1444
43.8439,1447.2921
43.8659,1471.5036
43.8879,1463.9672
43.9099,1396.1091
43.9319,1348.662
43.9539,1324.6255
43.9759,1395.3986
43.9979,1443.5752
44.0199,1449.8511
44.0419,1447.7875
44.0639,1425.9803
44.0859,1460.2048
44.1079,1483.41
44.1299,1420.3625
44.1519,1419.3267
44.1739,1451.6017
44.1959,1432.2187
44.2179,1350.2671
44.2399,1335.7819
44.2619,1366.002
44.2839,1335.8415
44.3059,1347.6462
44.3279,1341.8607
44.3499,1338.9706
44.3719,1362.9558
44.3939,1354.0786
44.4159,1315.1306
44.4379,1320.5606
44.4599,1343.9755
44.4819,1325.6312
44.5039,1333.5163
44.5259,1315.346
44.5479,1311.1013
44.5699,1319.0885
44.5919,1265.0066
44.6139,1282.6756
44.6359,1285.8776
44.6579,1338.5538
44.6799,1380.4156
44.7019,1367.0501
44.7239,1385.8413
44.7459,1355.3342
44.7679,1448.0092
44.7899,1409.8317
44.8119,1425.3019
44.8339,1499.9383
44.8559,1477.5255
44.8779,1391.5474
44.8999,1406.4676
44.9219,1424.7169
44.9439,1419.0206
44.9659,1455.0177
44.9879,1456.9154
45.0099,1453.1672
45.0319,1454.5248
45.0539,1384.2627
45.0759,1422.3359
45.0979,1443.7996
45.1199,1488.0876
45.1419,1495.8885
45.1639,1402.6462
45.1859,1453.993
45.2079,1414.2294
45.2299,1366.4954
45.2519,1330.5532
45.2739,1349.2005
45.2959,1335.2847
45.3179,1336.4639
45.3399,1292.5738
45.3619,1294.5042
45.3839,1256.4225
45.4059,1291.8014
45.4279,1304.8054
45.4499,1319.3963
45.4719,1322.7085
45.4939,1307.4158
45.5159,1273.3677
45.5379,1267.4021
45.5599,1262.0885
45.5819,1266.823
45.6039,1305.5658
45.6259,1373.5604
45.6479,1321.3517
45.6699,1272.0433
45.6919,1272.8096
45.7139,1289.4329
45.7359,1312.3651
45.7579,1331.1331
45.7799,1352.1556
45.8019,1311.5723
45.8239,1338.3158
45.8459,1336.9693
45.8679,1318.8197
45.8899,1356.7288
45.9119,1379.4626
45.9339,1357.0136
45.9559,1344.6195
45.9779,1343.8318
45.9999,1392.2014
46.0219,1440.9765
46.0439,1502.7781
46.0659,1624.9002
46.0879,1992.0342
46.1099,2407.8675
46.1319,3227.9722
46.1539,4499.3676
46.1759,5771.6271
46.1979,6566.8054
46.2199,6033.3003
46.2419,4667.0597
46.2639,3840.4779
46.2859,3861.9064
46.3079,3810.7606
46.3299,3161.5941
46.3519,2178.5805
46.3739,1653.1265
46.3959,1443.3333
46.4179,1343.1147
46.4399,1291.3764
46.4619,1172.5069
46.4839,1187.9913
46.5059,1200.9538
46.5279,1207.2891
46.5499,1199.9557
46.5719,1181.7841
46.5939,1203.8782
46.6159,1111.0704
46.6379,1148.3197
46.6599,1204.4948
46.6819,1097.6663
46.7039,1142.0125
46.7259,1090.4167
46.7479,1140.3321
46.7699,1214.3145
46.7919,1171.6502
46.8139,1093.9499
46.8359,1120.9841
46.8579,1202.9387
46.8799,1127.4754
46.9019,1250.2763
46.9239,1237.9649
46.9459,1193.5398
46.9679,1203.6253
46.9899,1300.0719
47.0119,1321.1269
47.0339,1353.5265
47.0559,1479.5334
47.0779,1667.6005
47.0999,2163.2435
47.1219,2854.217
47.1439,3851.7819
47.1659,4613.8548
47.1879,4719.8284
47.2099,3898.6655
47.2319,3016.54
47.2539,3005.4048
47.2759,3085.0038
47.2979,2822.6031
47.3199,2265.9033
47.3419,1660.2823
47.3639,1448.8048
47.3859,1334.0696
47.4079,1262.2961
47.4299,1197.4473
47.4519,1208.0803
47.4739,1205.1472
47.4959,1155.8446
47.5179,1162.2154
47.5399,1133.2475
47.5619,1122.9806
47.5839,1151.6843
47.6059,1153.9972
47.6279,1117.9126
47.6499,1090.9264
47.6719,1127.4544
47.6939,1114.5505
47.7159,1088.5477
47.7379,1075.6371
47.7599,1119.7137
47.7819,1114.924
47.8039,1096.4824
47.8259,1158.3887
47.8479,1210.3315
47.8699,1219.1062
47.8919,1248.891
47.9139,1222.7136
47.9359,1218.0399
47.9579,1176.6477
47.9799,1157.8491
48.0019,1139.5545
48.0239,1128.8481
48.0459,1131.648
48.0679,1143.3865
48.0899,1125.1287
48.1119,1122.5988
48.1339,1140.3541
48.1559,1127.5968
48.1779,1096.4896
48.1999,1129.9663
48.2219,1187.8478
48.2439,1187.9174
48.2659,1209.0178
48.2879,1215.5944
48.3099,1199.3352
48.3319,1109.8403
48.3539,1147.6905
48.3759,1193.2145
48.3979,1175.6961
48.4199,1174.9385
48.4419,1186.4101
48.4639,1124.3965
48.4859,1111.2704
48.5079,1175.2013
48.5299,1022.0002
48.5519,1082.5533
48.5739,1126.7787
48.5959,1116.4512
48.6179,1072.2141
48.6399,1005.0844
48.6619,1093.2062
48.6839,1032.3977
48.7059,1035.9315
48.7279,1123.7919
48.7499,1101.6874
48.7719,1123.5382
48.7939,1104.2923
48.8159,1154.1651
48.8379,1150.1754
48.8599,1238.6934
48.8819,1301.7328
48.9039,1392.5369
48.9259,1493.2212
48.9479,1511.7486
48.9699,1580.0788
48.9919,1592.1575
49.0139,1495.8165
49.0359,1359.9496
49.0579,1309.3098
49.0799,1302.3341
49.1019,1289.318
49.1239,1310.8667
49.1459,1210.3637
49.1679,1188.792
49.1899,1173.4129
49.2119,1150.9036
49.2339,1117.401
49.2559,1071.671
49.2779,1073.8802
49.2999,1113.6378
49.3219,1116.2034
49.3439,1086.8166
49.3659,1118.4968
49.3879,1132.1561
49.4099,1132.9904
49.4319,1144.8504
49.4539,1158.5224
49.4759,1188.4715
49.4979,1200.4386
49.5199,1214.8717
49.5419,1192.5574
49.5639,1275.2499
49.5859,1359.4396
49.6079,1462.9647
49.6299,1660.9733
49.6519,2035.2304
49.6739,2700.1366
49.6959,3890.6528
49.7179,5650.6887
49.7399,7475.3163
49.7619,7474.5269
49.7839,5716.6276
49.8059,4317.9163
49.8279,4077.5407
49.8499,4484.0079
49.8719,4527.7798
49.8939,3461.3754
49.9159,2320.2969
49.9379,1710.7101
49.9599,1510.9336
49.9819,1453.5515
50.0039,1336.4739
50.0259,1358.1329
50.0479,1338.1651
50.0699,1326.9774
50.0919,1382.7235
50.1139,1330.8227
50.1359,1460.2793
50.1579,1584.2355
50.1799,1645.7008
50.2019,1528.5639
50.2239,1468.8936
50.2459,1417.106
50.2679,1352.8562
50.2899,1375.5822
50.3119,1386.9514
50.3339,1234.7167
50.3559,1198.3548
50.3779,1167
50.3999,1164.5391
50.4219,1111.8289
50.4439,1109.2773
50.4659,1109.7353
50.4879,1076.9441
50.5099,1111.0707
50.5319,1082.5026
50.5539,1115.3461
50.5759,1108.997
50.5979,1089.8533
50.6199,1051.503
50.6419,1055.6195
50.6639,1059.1553
50.6859,1038.7049
50.7079,1032.1904
50.7299,1050.6713
50.7519,990.9312
50.7739,982.5396
50.7959,950.6393
50.8179,977.2173
50.8399,974.3585
50.8619,1003.777
50.8839,1048.8909
50.9059,1021.8934
50.9279,972.6083
50.9499,1017.5449
50.9719,1048.3643
50.9939,1066.7003
51.0159,1065.2775
51.0379,1028.6343
51.0599,1061.2986
51.0819,1082.5742
51.1039,1056.5927
51.1259,1005.0854
51.1479,1000.5056
51.1699,1013.4513
51.1919,1001.0767
51.2139,983.0146
51.2359,989.4957
51.2579,989.5603
51.2799,964.5634
51.3019,950.2212
51.3239,941.3171
51.3459,908.4708
51.3679,892.0266
51.3899,959.1754
51.4119,975.3745
51.4339,946.5515
51.4559,949.1554
51.4779,967.9401
51.4999,968.407
51.5219,1001.2657
51.5439,1025.1549
51.5659,976.4835
51.5879,983.0469
51.6099,1005.8113
51.6319,1029.7921
51.6539,1024.3293
51.6759,956.3596
51.6979,962.947
51.7199,963.1779
51.7419,980.8624
51.7639,955.342
51.7859,957.829
51.8079,930.902
51.8299,945.2479
51.8519,960.1274
51.8739,974.1554
51.8959,973.3584
51.9179,876.5748
51.9399,912.9712
51.9619,956.5311
51.9839,939.5466
52.0059,908.7983
52.0279,907.9543
52.0499,930.2312
52.0719,927.0845
52.0939,982.5046
52.1159,871.4135
52.1379,989.3005
52.1599,885.7467
52.1819,981.8064
52.2039,997.2121
52.2259,932.1152
52.2479,975.6105
52.2699,966.785
52.2919,1039.7918
52.3139,984.4297
52.3359,981.1372
52.3579,977.0764
52.3799,911.7544
52.4019,959.8574
52.4239,954.1755
52.4459,955.7512
52.4679,961.4012
52.4899,979.7081
52.5119,1007.9557
52.5339,981.9142
52.5559,961.695
52.5779,992.3674
52.5999,920.2738
52.6219,943.8912
52.6439,989.3612
52.6659,955.7856
52.6879,942
52.7099,945.353
52.7319,960.3423
52.7539,963.7639
52.7759,962.8419
52.7979,978.3921
52.8199,962.8704
52.8419,991.0905
52.8639,1000.7921
52.8859,978.6812
52.9079,968.8636
52.9299,1000.5418
52.9519,1047.9916
52.9739,1097.6548
52.9959,1065.2751
53.0179,1049.1771
53.0399,1073.9917
53.0619,1042.9112
53.0839,1021.3276
53.1059,1057.8183
53.1279,1075.4312
53.1499,1051.755
53.1719,1080.0996
53.1939,1091.6174
53.2159,1072.82
53.2379,1061.4365
53.2599,1116.1174
53.2819,1136.5574
53.3039,1165.3596
53.3259,1191.1534
53.3479,1269.0167
53.3699,1288.6233
53.3919,1240.7367
53.4139,1207.2418
53.4359,1252.8636
53.4579,1252.9232
53.4799,1261.5443
53.5019,1239.5554
53.5239,1277.0342
53.5459,1221.6014
53.5679,1249.806
53.5899,1288.9431
53.6119,1338.6403
53.6339,1472.1746
53.6559,1666.7638
53.6779,2295.8878
53.6999,3214.3205
53.7219,4186.3668
53.7439,4766.7942
53.7659,4373.4946
53.7879,3201.6705
53.8099,2440.2035
53.8319,2689.7579
53.8539,2875.4245
53.8759,2846.4512
53.8979,2438.3995
53.9199,1753.3961
53.9419,1348.0732
53.9639,1226.5334
53.9859,1209.6152
54.0079,1119.311
54.0299,1066.5843
54.0519,1120.4069
54.0739,1071.292
54.0959,1076.3024
54.1179,1087.928
54.1399,1041.4293
54.1619,1076.8861
54.1839,1107.1541
54.2059,1059.2774
54.2279,1084.0345
54.2499,1100.4346
54.2719,1092.5442
54.2939,1082.8151
54.3159,1075.6742
54.3379,1082.1472
54.3599,1020.9144
54.3819,1003.9173
54.4039,978.6194
54.4259,963.2379
54.4479,963.8463
54.4699,995.3096
54.4919,985.9632
54.5139,987.4207
54.5359,970.2891
54.5579,973.413
54.5799,972.639
54.6019,961.354
54.6239,949.6242
54.6459,939.9244
54.6679,965.7257
54.6899,1002.0484
54.7119,1007.3188
54.7339,998.7023
54.7559,982.9898
54.7779,968.8557
54.7999,1004
54.8219,1010.6982
54.8439,1017
54.8659,1001.8848
54.8879,976.8534
54.9099,950.0677
54.9319,928.3495
54.9539,947.3266
54.9759,958.9872
54.9979,953.7729
55.0199,943.612
55.0419,939.2763
55.0639,918.5353
55.0859,934.1722
55.1079,922.3489
55.1299,910.6873
55.1519,954.3759
55.1739,940.9644
55.1959,919.3097
55.2179,935.1486
55.2399,1021.3702
55.2619,1088.3365
55.2839,1063.1055
55.3059,1120.3514
55.3279,1162.1402
55.3499,1076.444
55.3719,1091.1909
55.3939,1142.4103
55.4159,1081.5375
55.4379,1040.64
55.4599,1043.8452
55.4819,999.0332
55.5039,957.1493
55.5259,961.177
55.5479,915.9575
55.5699,934.3954
55.5919,931.2728
55.6139,909.9301
55.6359,964.2908
55.6579,925.7255
55.6799,925
55.7019,939.2548
55.7239,974.6383
55.7459,907.8008
55.7679,992.4246
55.7899,954.4688
55.8119,894.6583
55.8339,892.419
55.8559,921.208
55.8779,931.3165
55.8999,916.765
55.9219,912.7934
55.9439,891.4639
55.9659,858.6383
55.9879,901.5002
56.0099,932.3893
56.0319,921.7487
56.0539,914.9205
56.0759,948.6909
56.0979,965.4718
56.1199,925.3345
56.1419,889.361
56.1639,924.24
56.1859,926.8494
56.2079,904.4479
56.2299,900.1513
56.2519,900.5357
56.2739,941
56.2959,929.8214
56.3179,927.6581
56.3399,976.7165
56.3619,978.341
56.3839,960.6801
56.4059,990.6018
56.4279,1010.8497
56.4499,1014.1591
56.4719,1004.4234
56.4939,1018.5063
56.5159,994.9954
56.5379,1014.2855
56.5599,1058.0275
56.5819,1040.05
56.6039,1033.2164
56.6259,1002.7204
56.6479,963.8584
56.6699,937.3538
56.6919,956.7589
56.7139,963.9644
56.7359,937.2315
56.7579,896.3822
56.7799,896.1477
56.8019,977.4941
56.8239,992.017
56.8459,986.6903
56.8679,968.3007
56.8899,947.2821
56.9119,881.5394
56.9339,925.9946
56.9559,929.7009
56.9779,956.8675
56.9999,933.2008
57.0219,940.5862
57.0439,915.4644
57.0659,908.0757
57.0879,857.4392
57.1099,886.6433
57.1319,922.98
57.1539,916.7285
57.1759,919.8127
57.1979,942.9097
57.2199,888.862
57.2419,893.7434
57.2639,920.6275
57.2859,944.5124
57.3079,942.4793
57.3299,963.0778
57.3519,1008.6497
57.3739,1009.177
57.3959,1036.6457
57.4179,999.3764
57.4399,974.5309
57.4619,999.7445
57.4839,1037.0517
57.5059,1057.3803
57.5279,1015.7025
57.5499,1004.6066
57.5719,995.3098
57.5939,1004.3237
57.6159,1051.552
57.6379,1032.6725
57.6599,1012.1462
57.6819,947.3814
57.7039,922.3851
57.7259,948.3403
57.7479,964.3496
57.7699,971.5133
57.7919,974.7597
57.8139,1004.2419
57.8359,1014
57.8579,1011.0403
57.8799,984.7883
57.9019,940.4957
57.9239,970.4828
57.9459,980.3452
57.9679,988.6372
57.9899,993
58.0119,1012.929
58.0339,1025.3092
58.0559,945.4238
58.0779,957.719
58.0999,1019.6891
58.1219,1051.337
58.1439,1021.7119
58.1659,1048.3247
58.1879,1111.4748
58.2099,1100.4625
58.2319,1023.7257
58.2539,1015.694
58.2759,1004.1235
58.2979,994.6812
58.3199,972.1647
58.3419,992.4544
58.3639,1009.9764
58.3859,990.7314
58.4079,970
58.4299,1042.744
58.4519,1086.899
58.4739,1046.6665
58.4959,1042.1963
58.5179,1077.366
58.5399,1141.8022
58.5619,1174
58.5839,1180.7872
58.6059,1235.3445
58.6279,1322.7438
58.6499,1358.2694
58.6719,1391.3104
58.6939,1415.1416
58.7159,1449.3935
58.7379,1474.9519
58.7599,1419.1958
58.7819,1451.0279
58.8039,1568.9303
58.8259,1808.3552
58.8479,2127.5231
58.8699,2764.2953
58.8919,3936.6135
58.9139,5802.5498
58.9359,8896.9506
58.9579,13134.3709
58.9799,16117.5356
59.0019,14062.4076
59.0239,9556.8635
59.0459,6653.9214
59.0679,5900.7146
59.0899,7135.2838
59.1119,8560.3609
59.1339,8233.87
59.1559,5716.9289
59.1779,3335.2775
59.1999,2225.0391
59.2219,1734.2899
59.2439,1388.8175
59.2659,1315.1354
59.2879,1309.5746
59.3099,1173.4524
59.3319,1194.0473
59.3539,1225.8321
59.3759,1292.2809
59.3979,1446.6091
59.4199,1543.5707
59.4419,1527.3254
59.4639,1515.5671
59.4859,1467.1296
59.5079,1462.3169
59.5299,1620.2578
59.5519,1654.4749
59.5739,1612.5912
59.5959,1439.8905
59.6179,1285.6371
59.6399,1272.1345
59.6619,1241.3422
59.6839,1238.3053
59.7059,1242.8281
59.7279,1227.1144
59.7499,1111.4099
59.7719,1079.0166
59.7939,1042.814
59.8159,1029.0135
59.8379,1066.5063
59.8599,1068.2371
59.8819,1071.6016
59.9039,1022.5037
59.9259,995.4357
59.9479,997.491
59.9699,979.3481
59.9919,973.3126
60.0139,970.2302
60.0359,979.1484
60.0579,965.5948
60.0799,949.5854
60.1019,955.6039
60.1239,929.7385
60.1459,904.4427
60.1679,946.0552
60.1899,971.828
60.2119,969.3096
60.2339,936.5239
60.2559,941.0454
60.2779,924.631
60.2999,914.1201
60.3219,924.236
60.3439,925.4012
60.3659,954.5666
60.3879,939.5061
60.4099,920
60.4319,897.9182
60.4539,909.1614
60.4759,863.032
60.4979,874.8075
60.5199,888.8082
60.5419,889.8437
60.5639,903.2946
60.5859,943.3041
60.6079,913.3758
60.6299,905.8408
60.6519,875.5603
60.6739,847.168
60.6959,894.5991
60.7179,880.4856
60.7399,853.4615
60.7619,845.6647
60.7839,870.3836
60.8059,874.1416
60.8279,866.1637
60.8499,859.702
60.8719,840.199
60.8939,795.3439
60.9159,844.3523
60.9379,822.8996
60.9599,838.0001
60.9819,894.4909
61.0039,806.8801
61.0259,857.9727
61.0479,812.3002
61.0699,775.3247
61.0919,829.5269
61.1139,805.5853
61.1359,855.23
61.1579,836.8436
61.1799,814.1035
61.2019,776.0709
61.2239,803.218
61.2459,832.2899
61.2679,805.0382
61.2899,783.1153
61.3119,836.3067
61.3339,825.8466
61.3559,818.3725
61.3779,795.8567
61.3999,848.8541
61.4219,852.0873
61.4439,824.7347
61.4659,859.1329
61.4879,874.9719
61.5099,854.7207
61.5319,842.264
61.5539,846.0394
61.5759,863.8124
61.5979,875.6635
61.6199,842.3023
61.6419,835.9057
61.6639,836.907
61.6859,830.3511
61.7079,851.6092
61.7299,869.4956
61.7519,847.9805
61.7739,827.1507
61.7959,862.1194
61.8179,883.0042
61.8399,892.5789
61.8619,861.4484
61.8839,870.2921
61.9059,827.9739
61.9279,785.5282
61.9499,824.3896
61.9719,869.9427
61.9939,871.637
62.0159,876.5145
62.0379,901.3737
62.0599,914.503
62.0819,909.4316
62.1039,904.6687
62.1259,875.2269
62.1479,890.0981
62.1699,920.2046
62.1919,910.0795
62.2139,889.0992
62.2359,870.1681
62.2579,892.1241
62.2799,878.7235
62.3019,883.3551
62.3239,869.8052
62.3459,867.4691
62.3679,839.2948
62.3899,820.5663
62.4119,862.5839
62.4339,908.4859
62.4559,893.0323
62.4779,921.6639
62.4999,926.9759
62.5219,876.9732
62.5439,911.6173
62.5659,939.5173
62.5879,849.0614
62.6099,859.8546
62.6319,952.7355
62.6539,940.9468
62.6759,845.8786
62.6979,890.0111
62.7199,868.0957
62.7419,908.3011
62.7639,955.7588
62.7859,888.5483
62.8079,877.2079
62.8299,900.7405
62.8519,930.0163
62.8739,940.0498
62.8959,872.7558
62.9179,901.6904
62.9399,920.0635
62.9619,936.8532
62.9839,886.1635
63.0059,849.2395
63.0279,950.7102
63.0499,897.395
63.0719,858.9707
63.0939,896.3528
63.1159,870.2774
63.1379,889.6451
63.1599,883.4545
63.1819,843.2037
63.2039,870.5571
63.2259,880.7933
63.2479,869.1538
63.2699,928.2447
63.2919,901.2689
63.3139,897.0384
63.3359,889.9403
63.3579,875.5037
63.3799,900.1813
63.4019,886.47
63.4239,929.8836
63.4459,992.6664
63.4679,966.9864
63.4899,986.1475
63.5119,959.6427
63.5339,915.2675
63.5559,925.8156
63.5779,965.1155
63.5999,1012.4187
63.6219,951.4017
63.6439,943.7233
63.6659,1015.125
63.6879,1037.7135
63.7099,1028.4009
63.7319,1017.3143
63.7539,1070.4222
63.7759,1058.265
63.7979,1022.6599
63.8199,1001.0051
63.8419,1006.1655
63.8639,1073.9483
63.8859,1072.4088
63.9079,1065.7435
63.9299,1044.7942
63.9519,1027.9283
63.9739,999.5838
63.9959,1026.4836
64.0179,1057.2232
64.0399,1050.022
64.0619,1036.1927
64.0839,987.1644
64.1059,987.36
64.1279,1014.5734
64.1499,992.9339
64.1719,971.6548
64.1939,1034.1086
64.2159,959.7958
64.2379,953.2745
64.2599,1012.0151
64.2819,993.9841
64.3039,977.8731
64.3259,985.8998
64.3479,1008.0945
64.3699,1108.8501
64.3919,1030.3343
64.4139,996.643
64.4359,1048.0726
64.4579,1054.1013
64.4799,1038.5127
64.5019,1039.7699
64.5239,1090.5224
64.5459,1181.206
64.5679,1188.8805
64.5899,1357.2378
64.6119,1542.2118
64.6339,1978.719
64.6559,2742.0566
64.6779,3933.863
64.6999,4866.3015
64.7219,5826.3148
64.7439,5403.7716
64.7659,4064.2155
64.7879,2972.9234
64.8099,2644.5937
64.8319,2817.2405
64.8539,3146.9469
64.8759,3467.2034
64.8979,3267.6695
64.9199,2630.4675
64.9419,1963.4498
64.9639,1522.3399
64.9859,1362.498
65.0079,1251.1637
65.0299,1159.3597
65.0519,1146.5269
65.0739,1173.6269
65.0959,1110.3172
65.1179,1112.5112
65.1399,1099.833
65.1619,1127.301
65.1839,1213.4746
65.2059,1440.9235
65.2279,1702.2126
65.2499,1963.6034
65.2719,2009.4784
65.2939,1836.6061
65.3159,1525.4424
65.3379,1320.9949
65.3599,1319.7569
65.3819,1364.1289
65.4039,1445.3587
65.4259,1544.9116
65.4479,1447.9177
65.4699,1220.0717
65.4919,1071.2695
65.5139,1010.0086
65.5359,995.0158
65.5579,978.3626
65.5799,970.7671
65.6019,959.7205
65.6239,915.4437
65.6459,917.248
65.6679,957.1389
65.6899,984.9794
65.7119,1020.1679
65.7339,1072.0268
65.7559,1020.6277
65.7779,1003.72
65.7999,967.1215
65.8219,901.9968
65.8439,932.1336
65.8659,975.1899
65.8879,933.0719
65.9099,907.4503
65.9319,911.0556
65.9539,915.2036
65.9759,928.6958
65.9979,885.9358
66.0199,883.3423
66.0419,905.0247
66.0639,868.6094
66.0859,889.5223
66.1079,873.2039
66.1299,874.6628
66.1519,904.7347
66.1739,861.1266
66.1959,931.2748
66.2179,904.1915
66.2399,948.1866
66.2619,876.9396
66.2839,858.8923
66.3059,861.7247
66.3279,846.9045
66.3499,899.5224
66.3719,875.8627
66.3939,839.7078
66.4159,884.661
66.4379,792.2953
66.4599,852.6541
66.4819,888.7018
66.5039,845.6656
66.5259,840.4339
66.5479,880.013
66.5699,835.5613
66.5919,807.4548
66.6139,808.1797
66.6359,779.0439
66.6579,816.2638
66.6799,856.6179
66.7019,836.9703
66.7239,809.1647
66.7459,813.3629
66.7679,831.65
66.7899,852.071
66.8119,869.3934
66.8339,804.3924
66.8559,839.3683
66.8779,894.4421
66.8999,841.2607
66.9219,866.4623
66.9439,909.5313
66.9659,933.3046
66.9879,872.7754
67.0099,839.9857
67.0319,873.4771
67.0539,846.0758
67.0759,874.5636
67.0979,900.2311
67.1199,890.0887
67.1419,881.1065
67.1639,911.3579
67.1859,921.2617
67.2079,921.901
67.2299,893.8416
67.2519,871.2093
67.2739,846.5043
67.2959,855.8866
67.3179,857.1306
67.3399,824.7698
67.3619,823.9864
67.3839,861.1384
67.4059,876.9055
67.4279,856.4915
67.4499,854.125
67.4719,848.1828
67.4939,852.0876
67.5159,861
67.5379,865.9558
67.5599,925.8589
67.5819,1000.2196
67.6039,1009.2167
67.6259,1018.716
67.6479,970.4828
67.6699,930.1356
67.6919,904.2457
67.7139,907.4848
67.7359,893.0176
67.7579,941.6789
67.7799,930.0583
67.8019,920
67.8239,885.7126
67.8459,865.7099
67.8679,882.2922
67.8899,838.8483
67.9119,844.5684
67.9339,858.0886
67.9559,836.9689
67.9779,837.3265
67.9999,876.6138
68.0219,853.5239
68.0439,847.2935
68.0659,841.5132
68.0879,853.9745
68.1099,832.463
68.1319,850.978
68.1539,868.3816
68.1759,822.1561
68.1979,825.941
68.2199,760.0114
68.2419,784.087
68.2639,866.8965
68.2859,825.009
68.3079,849.7088
68.3299,827.9737
68.3519,868.9909
68.3739,821.0768
68.3959,844.5812
68.4179,857.2221
68.4399,836.4594
68.4619,788.1002
68.4839,784.2874
68.5059,826.0696
68.5279,799.4869
68.5499,825.9913
68.5719,849.5772
68.5939,857.2567
68.6159,839.8264
68.6379,780.0201
68.6599,844.419
68.6819,847.2937
68.7039,803.1238
68.7259,790.5664
68.7479,815.0476
68.7699,870
68.7919,856.2372
68.8139,827.6647
68.8359,803.8408
68.8579,775.9885
68.8799,804.2462
68.9019,788.7109
68.9239,791.301
68.9459,810.7464
68.9679,837.5518
68.9899,840.3567
69.0119,826.7587
69.0339,867.2344
69.0559,899.0515
69.0779,878.4836
69.0999,827.121
69.1219,825.3367
69.1439,855.7659
69.1659,891.85
69.1879,937.5782
69.2099,920.1954
69.2319,877.7987
69.2539,868.0945
69.2759,853.9241
69.2979,870.7407
69.3199,871.9335
69.3419,920.2247
69.3639,980.306
69.3859,984.8731
69.4079,943.4682
69.4299,941.9126
69.4519,909.361
69.4739,879.7826
69.4959,855.7388
69.5179,857.4337
69.5399,902.3258
69.5619,907.997
69.5839,887.4615
69.6059,833.9603
69.6279,852.2721
69.6499,842.6134
69.6719,787.6742
69.6939,846.8638
69.7159,850.292
69.7379,848.8486
69.7599,805.0956
69.7819,800.6195
69.8039,834.6472
69.8259,853.3639
69.8479,786.7474
69.8699,757.8642
69.8919,831.704
69.9139,804.8051
69.9359,803
69.9579,822.4298
69.9799,847.5945
70.0019,839.0353
70.0239,850.7658
70.0459,823.8055
70.0679,860.2539
70.0899,808.6381
70.1119,802.3807
70.1339,826.6058
70.1559,842.4987
70.1779,784.776
70.1999,821.2134
70.2219,825.6176
70.2439,844.0811
70.2659,843.1683
70.2879,863.2459
70.3099,810.5489
70.3319,828.0759
70.3539,792.4437
70.3759,829.7448
70.3979,824.9116
70.4199,834.6376
70.4419,843.9474
70.4639,912.3912
70.4859,908.9885
70.5079,960.5267
70.5299,982.3285
70.5519,1012.8746
70.5739,1068.1062
70.5959,1041.0448
70.6179,1018.1557
70.6399,1064.6475
70.6619,1051.9615
70.6839,1037.7877
70.7059,1072.7525
70.7279,1127.2721
70.7499,1164.5911
70.7719,1281.5972
70.7939,1391.1255
70.8159,1518.4995
70.8379,1904.8105
70.8599,2420.2871
70.8819,3397.562
70.9039,4945.0095
70.9259,6852.5973
70.9479,8457.5708
70.9699,8613.2467
70.9919,7029.3272
71.0139,4987.5799
71.0359,3686.3934
71.0579,3290.7304
71.0799,3632.2054
71.1019,4311.65
71.1239,4800.054
71.1459,4729.0858
71.1679,3886.9171
71.1899,2744.4382
71.2119,1974.898
71.2339,1520.0952
71.2559,1250.0042
71.2779,1132.8285
71.2999,1089.3627
71.3219,1048.7244
71.3439,1022.0835
71.3659,969.2386
71.3879,947.0663
71.4099,959.0886
71.4319,939.1503
71.4539,871.6466
71.4759,879.948
71.4979,892.4868
71.5199,911.7273
71.5419,848.1972
71.5639,879.5681
71.5859,890.4051
71.6079,817.7478
71.6299,799.9439
71.6519,781.5599
71.6739,758.6056
71.6959,826.7438
71.7179,850.0955
71.7399,829.7246
71.7619,839.7729
71.7839,846.9415
71.8059,874.0827
71.8279,894.1398
71.8499,842.8271
71.8719,867.4902
71.8939,789.0358
71.9159,858.0573
71.9379,816.3107
71.9599,818.3804
71.9819,804.9657
72.0039,833.4057
72.0259,845.277
72.0479,799.5566
72.0699,803.9086
72.0919,808.5088
72.1139,810.9284
72.1359,837.0129
72.1579,842.1768
72.1799,807.8067
72.2019,807.2589
72.2239,837.6886
72.2459,829.4822
72.2679,871.1113
72.2899,837.2125
72.3119,863.8985
72.3339,881.9506
72.3559,848.3776
72.3779,874.1745
72.3999,929.6568
72.4219,900.5453
72.4439,849.9189
72.4659,837.9379
72.4879,850.2571
72.5099,875.9456
72.5319,855.4672
72.5539,850.0646
72.5759,856.0324
72.5979,883.8041
72.6199,848.5323
72.6419,841.123
72.6639,846.0668
72.6859,836.5663
72.7079,815.2875
72.7299,783.2741
72.7519,777.1815
72.7739,787
72.7959,817.08
72.8179,858.6491
72.8399,863.8573
72.8619,826.5228
72.8839,827.4294
72.9059,824.0637
72.9279,855.2624
72.9499,879.3569
72.9719,880.3107
72.9939,855.6291
73.0159,844.3599
73.0379,882.3808
73.0599,864.4781
73.0819,890.1419
73.1039,833.818
73.1259,858.1567
73.1479,874.4926
73.1699,830.3389
73.1919,874.5924
73.2139,891
73.2359,925.5229
73.2579,921.7728
73.2799,935.5488
73.3019,886.097
73.3239,856.4035
73.3459,907.4517
73.3679,881.8125
73.3899,867.2222
73.4119,913.7628
73.4339,885.2014
73.4559,919.9565
73.4779,926.7522
73.4999,912.7448
73.5219,896.5977
73.5439,897.9499
73.5659,930.5784
73.5879,935.9976
73.6099,940.3305
73.6319,967.7108
73.6539,956.4003
73.6759,967.0487
73.6979,969.4023
73.7199,988.6557
73.7419,967.2985
73.7639,1049.6402
73.7859,987.2555
73.8079,968.0182
73.8299,1048.2124
73.8519,1046.5916
73.8739,1001.8765
73.8959,1055.8875
73.9179,1069.0454
73.9399,1073.6604
73.9619,1016.0815
73.9839,1010.7396
74.0059,1024.2417
74.0279,1011.8134
74.0499,1030.9221
74.0719,1022.7527
74.0939,1066.9632
74.1159,1015.411
74.1379,1035.7821
74.1599,1068.4078
74.1819,1022.0647
74.2039,1019.5888
74.2259,1036.7106
74.2479,998.1588
74.2699,1010.2215
74.2919,1003.5738
74.3139,974.8508
74.3359,978.538
74.3579,938.2733
74.3799,939.5139
74.4019,931.283
74.4239,911.3997
74.4459,905.3382
74.4679,859.6721
74.4899,870.8413
74.5119,900.9177
74.5339,891.9765
74.5559,887.5726
74.5779,868.1582
74.5999,869.4735
74.6219,832.7105
74.6439,830.4742
74.6659,861.2302
74.6879,849.578
74.7099,884.3505
74.7319,884.5381
74.7539,887.2263
74.7759,866.4914
74.7979,839.5161
74.8199,813.3656
74.8419,843.9059
74.8639,861.7124
74.8859,810.5473
74.9079,816.0572
74.9299,853.4722
74.9519,834.8223
74.9739,839.1555
74.9959,849.2891
75.0179,835.0313
75.0399,817.2177
75.0619,815.646
75.0839,836.8826
75.1059,844.3904
75.1279,843.2802
75.1499,819.4512
75.1719,831.036
75.1939,855.419
75.2159,798.0026
75.2379,850.966
75.2599,824.2564
75.2819,839.9726
75.3039,867.8301
75.3259,821.4451
75.3479,825.8968
75.3699,890.6808
75.3919,880.69
75.4139,839.3541
75.4359,855.8493
75.4579,825.0271
75.4799,908.6639
75.5019,855.6158
75.5239,893.9206
75.5459,930.6433
75.5679,962.5116
75.5899,932.646
75.6119,933.6481
75.6339,954.4354
75.6559,927.5794
75.6779,896.1612
75.6999,911.5854
75.7219,1004.2501
75.7439,918.5516
75.7659,926.9553
75.7879,992
75.8099,986.7
75.8319,990.2561
75.8539,1041.7697
75.8759,1058.1675
75.8979,1153.9084
75.9199,1212.4749
75.9419,1402.138
75.9639,1560.1048
75.9859,1953.0854
76.0079,2392.8238
76.0299,2551.2297
76.0519,2249.1701
76.0739,1826.2098
76.0959,1480.6591
76.1179,1335.8728
76.1399,1338.7232
76.1619,1384.3746
76.1839,1495.264
76.2059,1671.0477
76.2279,1633.7684
76.2499,1433.565
76.2719,1241.1446
76.2939,1057.5789
76.3159,963.4721
76.3379,947.8129
76.3599,895.3015
76.3819,845.339
76.4039,819.1268
76.4259,807.5643
76.4479,826.894
76.4699,794.2286
76.4919,800.316
76.5139,816.0235
76.5359,806.1814
76.5579,816.8349
76.5799,790.4451
76.6019,746.6645
76.6239,804.2636
76.6459,849.1594
76.6679,800.2601
76.6899,762.1513
76.7119,771.6417
76.7339,775.4857
76.7559,796.5439
76.7779,816.2892
76.7999,754.8913
76.8219,785.5716
76.8439,756.8891
76.8659,766.2794
76.8879,775.9022
76.9099,793.2538
76.9319,817.6939
76.9539,781.398
76.9759,759.0456
76.9979,804.0406
77.0199,773.2402
77.0419,777.4337
77.0639,780.8245
77.0859,808.66
77.1079,770.3906
77.1299,789.5458
77.1519,794.9533
77.1739,839.9202
77.1959,813.0457
77.2179,815.9725
77.2399,811.4552
77.2619,732.3587
77.2839,845.9388
77.3059,815.9233
77.3279,819.0937
77.3499,852.1883
77.3719,777.2937
77.3939,801.9931
77.4159,801.6316
77.4379,840.2919
77.4599,820.4433
77.4819,811.8776
77.5039,871.8846
77.5259,823.0097
77.5479,809.9928
77.5699,825.9112
77.5919,788.6351
77.6139,780.7512
77.6359,790.4427
77.6579,815.8996
77.6799,818.9969
77.7019,821.5244
77.7239,770.439
77.7459,825.0649
77.7679,817.317
77.7899,812.4297
77.8119,826.3443
77.8339,835.5662
77.8559,820.6961
77.8779,809.4709
77.8999,794.323
77.9219,794.8919
77.9439,792.1714
77.9659,781.5635
77.9879,780.5073
78.0099,754.2593
78.0319,733.4469
78.0539,789.9004
78.0759,814.5729
78.0979,809.959
78.1199,861.6365
78.1419,936.5699
78.1639,1060.1838
78.1859,1213.6617
78.2079,1305.9673
78.2299,1258.7781
78.2519,1112.3235
78.2739,975.604
78.2959,906.808
78.3179,890.0737
78.3399,894.8894
78.3619,934.0003
78.3839,972.3689
78.4059,1033.8441
78.4279,1009.1589
78.4499,967.5249
78.4719,865.0715
78.4939,864.0593
78.5159,852.666
78.5379,815.165
78.5599,806.7773
78.5819,795.1562
78.6039,804.0281
78.6259,819.2125
78.6479,783.983
78.6699,806.1949
78.6919,812
78.7139,802.5034
78.7359,798.3731
78.7579,772.2506
78.7799,820.3116
78.8019,832.3875
78.8239,809.8804
78.8459,815.4966
78.8679,836.8861
78.8899,804.342
78.9119,834.1664
78.9339,817.2477
78.9559,776.0602
78.9779,804.184
78.9999,821.0925
79.0219,824.7522
79.0439,817.8092
79.0659,816.1595
79.0879,850.0723
79.1099,846.5179
79.1319,800.0341
79.1539,814.5248
79.1759,781.7647
79.1979,811.5409
79.2199,826.5398
79.2419,816.4169
79.2639,801.0052
79.2859,762.6105
79.3079,743.3904
79.3299,760.7684
79.3519,808.6929
79.3739,753.3969
79.3959,732.8377
79.4179,786.7168
79.4399,771.7048
79.4619,742.9686
79.4839,745.3584
79.5059,727.9909
79.5279,721.1316
79.5499,760.9912
79.5719,750.6635
79.5939,731.6146
79.6159,770.4828
79.6379,809.7156
79.6599,777.0283
79.6819,757.9793
79.7039,746.255
79.7259,755.0072
79.7479,766.2417
79.7699,749.0797
79.7919,742.8258
79.8139,752.4605
79.8359,777.9803
79.8579,802.1134
79.8799,819.8524
79.9019,831.8655
79.9239,834.5952
79.9459,792.0055
79.9679,798.7073
79.9899,818.8141
