Angle,Counts
6.8399,5386.997
6.8619,5421.0826
6.8839,5397.4159
6.9059,5248.8407
6.9279,5255.2758
6.9499,5225.0354
6.9719,5256.3678
6.9939,5352.4219
7.0159,5297.3554
7.0379,5168.4247
7.0599,5187.2311
7.0819,5160.5664
7.1039,5264.4174
7.1259,5170.997
7.1479,5120.5398
7.1699,5149.0344
7.1919,5029.9046
7.2139,5118.8319
7.2359,5115.914
7.2579,4981.2379
7.2799,5155.267
7.3019,5099.2399
7.3239,4996.1775
7.3459,4923.6283
7.3679,4993.2616
7.3899,5068.056
7.4119,5006.9823
7.4339,4939.7414
7.4559,5001.265
7.4779,4931.1445
7.4999,4886.2178
7.5219,4848.4268
7.5439,4907.7168
7.5659,4764.6844
7.5879,4769.6209
7.6099,4767.6932
7.6319,4788.9047
7.6539,4873.3903
7.6759,4798.289
7.6979,4709.6391
7.7199,4764.0084
7.7419,4830.9381
7.7639,4800.7124
7.7859,4685.3549
7.8079,4619.9587
7.8299,4671.6775
7.8519,4693.2493
7.8739,4668.5575
7.8959,4690.6593
7.9179,4783.3962
7.9399,4722.5752
7.9619,4680.7709
7.9839,4718.4331
8.0059,4688.4513
8.0279,4597.9705
8.0499,4544.7709
8.0719,4602.2744
8.0939,4695.0914
8.1159,4637.4395
8.1379,4518.5663
8.1599,4456.6755
8.1819,4492.533
8.2039,4490.5368
8.2259,4465.7601
8.2479,4518.6952
8.2699,4496.7256
8.2919,4464.7473
8.3139,4478.7443
8.3359,4459.7611
8.3579,4416.3903
8.3799,4388.0182
8.4019,4325.1445
8.4239,4333.0335
8.4459,4413.4278
8.4679,4381.2006
8.4899,4298.2497
8.5119,4309.912
8.5339,4262.2389
8.5559,4203.9838
8.5779,4230.3697
8.5999,4315.7906
8.6219,4322.0629
8.6439,4320.5959
8.6659,4244.5811
8.6879,4228.3363
8.7099,4244.2979
8.7319,4247.2345
8.7539,4202.6666
8.7759,4213.7021
8.7979,4196.7316
8.8199,4138.0477
8.8419,4196.2901
8.8639,4111.9705
8.8859,4133.0217
8.9079,4101.9921
8.9299,4220.4071
8.9519,4186.4729
8.9739,4069.2153
8.9959,4109.0398
9.0179,4016.8466
9.0399,4129.9455
9.0619,3929.9822
9.0839,3991.1608
9.1059,4004.7188
9.1279,4084.9248
9.1499,3829.2526
9.1719,4015.622
9.1939,4068.1357
9.2159,3989.9233
9.2379,3960.8555
9.2599,3952.1946
9.2819,3869.5674
9.3039,3956.8992
9.3259,3875.7434
9.3479,4013.3485
9.3699,3876.0964
9.3919,3906.9808
9.4139,3812.5978
9.4359,3748.03
9.4579,3727.5133
9.4799,3755.857
9.5019,3868.6519
9.5239,3848.3938
9.5459,3803.8151
9.5679,3797.8368
9.5899,3834.1003
9.6119,3860.6283
9.6339,3862.4149
9.6559,3794.6592
9.6779,3773.7366
9.6999,3882.5972
9.7219,3752.062
9.7439,3758.4931
9.7659,3766.475
9.7879,3834.7861
9.8099,3781.471
9.8319,3753.5968
9.8539,3714.2006
9.8759,3751.0403
9.8979,3735.3057
9.9199,3720.2169
9.9419,3771.1062
9.9639,3736.0251
9.9859,3699.823
10.0079,3775.152
10.0299,3875.5841
10.0519,3833.7817
10.0739,3815.0334
10.0959,3809.8436
10.1179,3802.9558
10.1399,3857.6171
10.1619,3917.8338
10.1839,3888.5575
10.2059,3972.5645
10.2279,4056.6013
10.2499,4155.1712
10.2719,4310.2533
10.2939,4218.5869
10.3159,4019.8716
10.3379,3881.7856
10.3599,3765.3721
10.3819,3654.4572
10.4039,3537.7467
10.4259,3506.2714
10.4479,3474.6873
10.4699,3473.7837
10.4919,3427.0835
10.5139,3472.4071
10.5359,3345.8362
10.5579,3350.1387
10.5799,3479.4986
10.6019,3473.35
10.6239,3365.4753
10.6459,3289.7374
10.6679,3312.0369
10.6899,3322.297
10.7119,3391.8629
10.7339,3257.9124
10.7559,3291.8796
10.7779,3382.4956
10.7999,3368.8997
10.8219,3336.2065
10.8439,3157.2049
10.8659,3134.5496
10.8879,3224.211
10.9099,3245.6637
10.9319,3268.8756
10.9539,3311.47
10.9759,3235.6711
10.9979,3270.3461
11.0199,3277.6307
11.0419,3208.5399
11.0639,3285.8884
11.0859,3288.5663
11.1079,3183.6018
11.1299,3207.3166
11.1519,3182.7772
11.1739,3105.7404
11.1959,3107.6942
11.2179,3126.7581
11.2399,3109.1667
11.2619,3110.8948
11.2839,3102.5688
11.3059,3060.5841
11.3279,3114.7341
11.3499,3142.0658
11.3719,3097.7139
11.3939,3135.2349
11.4159,3089.5596
11.4379,3149.6401
11.4599,3114.2394
11.4819,3112.6804
11.5039,3054.177
11.5259,3055.0128
11.5479,3107.8215
11.5699,3051.5988
11.5919,2970.1971
11.6139,3008.1132
11.6359,3055.5043
11.6579,2993.8221
11.6799,3090.6992
11.7019,3085.8495
11.7239,3011.0732
11.7459,2995.2026
11.7679,3018.3909
11.7899,3029.0423
11.8119,2995.8441
11.8339,2969.0413
11.8559,2965.7272
11.8779,2978.0924
11.8999,3064.0576
11.9219,3093.7325
11.9439,3058.56
11.9659,3087.0413
11.9879,3087.5403
12.0099,3047.3353
12.0319,3012.9439
12.0539,3061.0364
12.0759,3166.0763
12.0979,3226.6726
12.1199,3303.8309
12.1419,3284.352
12.1639,3250.4882
12.1859,3194.8613
12.2079,3063.7565
12.2299,3065.0649
12.2519,3038.3446
12.2739,3001.1583
12.2959,3079.5001
12.3179,2950.1385
12.3399,2939.7173
12.3619,2981.7404
12.3839,3006.116
12.4059,2989.5477
12.4279,2949.2935
12.4499,2938.6293
12.4719,2914.0609
12.4939,2959.4337
12.5159,2973.1568
12.5379,2924.9488
12.5599,2977.7685
12.5819,2888.6922
12.6039,2963.5841
12.6259,2937.0649
12.6479,2880.6622
12.6699,2949.4533
12.6919,2913.8628
12.7139,2903.0983
12.7359,2839.2729
12.7579,2947.9645
12.7799,2813.8658
12.8019,2883.7139
12.8239,2942.9792
12.8459,2812.6578
12.8679,2793.6096
12.8899,2809.4072
12.9119,2896
12.9339,2894.7561
12.9559,2885.6268
12.9779,2895.5064
12.9999,2935.2483
13.0219,2958.1858
13.0439,2914.2733
13.0659,2867.9557
13.0879,2846.5973
13.1099,2866.3354
13.1319,2914.4464
13.1539,2865.4956
13.1759,2886.793
13.1979,2882.0708
13.2199,2925.5472
13.2419,2943.8397
13.2639,2980.8722
13.2859,3002.0619
13.3079,2933.0009
13.3299,2896.7956
13.3519,2997.5177
13.3739,2973.113
13.3959,2935.9667
13.4179,2995.2389
13.4399,3007.1786
13.4619,3103.3451
13.4839,3108.9557
13.5059,3059.1681
13.5279,3056.8374
13.5499,3085.5929
13.5719,3033.4267
13.5939,2971.5555
13.6159,2911.5177
13.6379,2931.7749
13.6599,2947.2945
13.6819,2974.9204
13.7039,3002.9135
13.7259,3075.3334
13.7479,3162.3924
13.7699,3199.0836
13.7919,3178.6012
13.8139,3172.7227
13.8359,3220.0207
13.8579,3229.7846
13.8799,3261.7788
13.9019,3293.1544
13.9239,3211.3971
13.9459,3326.0828
13.9679,3333.3057
13.9899,3410.5665
14.0119,3452.4233
14.0339,3488.8368
14.0559,3594.7504
14.0779,3647.3098
14.0999,3756.4436
14.1219,3921.6088
14.1439,4013.6579
14.1659,4194.6865
14.1879,4257.969
14.2099,4313.3835
14.2319,4416.2076
14.2539,4513.1004
14.2759,4636.5798
14.2979,4829.0248
14.3199,4747.5102
14.3419,4879.7524
14.3639,4656.1448
14.3859,4581.2399
14.4079,4384.0647
14.4299,4199.2545
14.4519,3868.011
14.4739,3792.6991
14.4959,3671.7251
14.5179,3502.3302
14.5399,3313.1724
14.5619,3137.5477
14.5839,3117.3019
14.6059,3096.3009
14.6279,3051.8273
14.6499,2888.9901
14.6719,2862.8319
14.6939,2856.8564
14.7159,2803.6577
14.7379,2699.3039
14.7599,2795.8668
14.7819,2786.996
14.8039,2734.792
14.8259,2704.7886
14.8479,2679.408
14.8699,2619.646
14.8919,2639.6883
14.9139,2625.0265
14.9359,2619.3894
14.9579,2631.3157
14.9799,2623.2624
15.0019,2546.885
15.0239,2569.9287
15.0459,2527.2792
15.0679,2523.7302
15.0899,2548.2398
15.1119,2510.68
15.1339,2564.7876
15.1559,2541.556
15.1779,2487.289
15.1999,2471.5842
15.2219,2577.0453
15.2439,2569.7089
15.2659,2564.8408
15.2879,2603.1607
15.3099,2530.3893
15.3319,2437.8701
15.3539,2427.8821
15.3759,2490.4371
15.3979,2463.0943
15.4199,2453.6751
15.4419,2465.6017
15.4639,2443.4248
15.4859,2479.5586
15.5079,2494.0796
15.5299,2480.9292
15.5519,2426.3372
15.5739,2370.7718
15.5959,2408.4249
15.6179,2396.6686
15.6399,2442.3605
15.6619,2451.9557
15.6839,2465.1225
15.7059,2441.3097
15.7279,2424.0443
15.7499,2410.9007
15.7719,2469.6707
15.7939,2543.4986
15.8159,2541.027
15.8379,2440.3273
15.8599,2501.9692
15.8819,2381.9841
15.9039,2420.5055
15.9259,2450.708
15.9479,2503.8019
15.9699,2357.579
15.9919,2439.1226
16.0139,2590.0739
16.0359,2686.0738
16.0579,2694.708
16.0799,2667.879
16.1019,2683.4258
16.1239,2645.7123
16.1459,2680.0256
16.1679,2461.3931
16.1899,2402.8495
16.2119,2367.8889
16.2339,2368.8702
16.2559,2384.5044
16.2779,2377.1495
16.2999,2226.9649
16.3219,2339.882
16.3439,2320.1092
16.3659,2324.4454
16.3879,2277.2242
16.4099,2325.293
16.4319,2294.5855
16.4539,2273.0088
16.4759,2251.471
16.4979,2265.7915
16.5199,2276.7007
16.5419,2350.0716
16.5639,2201.6318
16.5859,2247.9823
16.6079,2278.0177
16.6299,2258.1947
16.6519,2231.4336
16.6739,2218.2793
16.6959,2239.7773
16.7179,2228.4543
16.7399,2256.8162
16.7619,2306.7589
16.7839,2228.9293
16.8059,2305.6578
16.8279,2298.1676
16.8499,2255.761
16.8719,2255.065
16.8939,2297.2408
16.9159,2271.3054
16.9379,2316.2999
16.9599,2304.1298
16.9819,2285.3746
17.0039,2295.2862
17.0259,2329.1623
17.0479,2359.2345
17.0699,2349.5575
17.0919,2307.3987
17.1139,2262.6873
17.1359,2260.5954
17.1579,2248.406
17.1799,2225.3673
17.2019,2241.4435
17.2239,2266.7655
17.2459,2243.4512
17.2679,2220.6883
17.2899,2205.9449
17.3119,2225.6889
17.3339,2226.1504
17.3559,2162.733
17.3779,2222.189
17.3999,2239.4286
17.4219,2246.7454
17.4439,2248.3849
17.4659,2283.4426
17.4879,2229.4635
17.5099,2296.4781
17.5319,2238.8489
17.5539,2220.3216
17.5759,2293.6387
17.5979,2252.5909
17.6199,2269.4022
17.6419,2177.2122
17.6639,2221.6107
17.6859,2186.5643
17.7079,2191.4071
17.7299,2071.988
17.7519,2133.9687
17.7739,2194.5871
17.7959,2120.8893
17.8179,2155.3432
17.8399,2111.199
17.8619,2121.9243
17.8839,2148.7213
17.9059,2104.7846
17.9279,2145.0605
17.9499,2117.9596
17.9719,2179.0134
17.9939,2149.2192
18.0159,2049.8642
18.0379,2021.8495
18.0599,2135.2966
18.0819,2053.9193
18.1039,2056.1063
18.1259,2128.6058
18.1479,2170.4104
18.1699,2110.5015
18.1919,2100.2282
18.2139,2139.1052
18.2359,2091.1858
18.2579,2036.2882
18.2799,2078.6047
18.3019,2055.6549
18.3239,2057.8118
18.3459,2146.4965
18.3679,2134.7655
18.3899,2119.0973
18.4119,2106.2562
18.4339,2101.9468
18.4559,2038.3776
18.4779,2055.5753
18.4999,2094.913
18.5219,2141.9302
18.5439,2136.1311
18.5659,2049.4691
18.5879,2075.637
18.6099,2036.4997
18.6319,2114.3583
18.6539,2049.1061
18.6759,2043.3624
18.6979,2069.6666
18.7199,2052.6732
18.7419,2046.69
18.7639,1952.7951
18.7859,2020.2025
18.8079,2007.9739
18.8299,2038.2744
18.8519,2058.2895
18.8739,2016.7551
18.8959,2072.5843
18.9179,2143.644
18.9399,2082.7969
18.9619,2079.1004
18.9839,2081.9886
19.0059,2020.2241
19.0279,2045.2169
19.0499,2088.8201
19.0719,2063.7664
19.0939,2047.2183
19.1159,2081.3113
19.1379,2052.7177
19.1599,2030.5605
19.1819,2064.942
19.2039,2014.0849
19.2259,1983.6814
19.2479,2002.8122
19.2699,2030.24
19.2919,2032.3525
19.3139,2037.4848
19.3359,2042
19.3579,2036.3835
19.3799,1993.996
19.4019,1981.6332
19.4239,2002.9514
19.4459,2105.4063
19.4679,2067.5195
19.4899,2021.9498
19.5119,1995.2974
19.5339,1956.3834
19.5559,1995.9485
19.5779,2016.0747
19.5999,2016.3255
19.6219,2072.9204
19.6439,1934.7618
19.6659,1994.9175
19.6879,2113.3718
19.7099,1989.4954
19.7319,2028.6608
19.7539,2064.4691
19.7759,2017.4134
19.7979,2012.1042
19.8199,2027.3629
19.8419,1976.4591
19.8639,1963.1829
19.8859,2053.7317
19.9079,1954.392
19.9299,2099.6419
19.9519,1994.6284
19.9739,2037.7187
19.9959,1978.4835
20.0179,2113.3009
20.0399,2084.2698
20.0619,2014.3875
20.0839,2054.7079
20.1059,2029.0047
20.1279,1936.8542
20.1499,2043.0146
20.1719,1985.6849
20.1939,2034.2724
20.2159,2063.8318
20.2379,2032.9007
20.2599,2035.038
20.2819,2080.7757
20.3039,2034.9248
20.3259,2044.0296
20.3479,2100.3791
20.3699,2110.174
20.3919,2071.4532
20.4139,2036.0443
20.4359,2044.9563
20.4579,2097.6934
20.4799,2173.91
20.5019,2142.8004
20.5239,2166.3722
20.5459,2221.1889
20.5679,2260.3647
20.5899,2245.4917
20.6119,2287.1461
20.6339,2326.6392
20.6559,2297.5485
20.6779,2223.584
20.6999,2174.6681
20.7219,2171.3491
20.7439,2179.3259
20.7659,2132.6558
20.7879,2123.0394
20.8099,2083.46
20.8319,2056.4317
20.8539,2069.5536
20.8759,2076.7051
20.8979,2132.4957
20.9199,2092.1586
20.9419,2039
20.9639,1994.0515
20.9859,2035.5577
21.0079,2003.637
21.0299,1950.002
21.0519,1997.8782
21.0739,2051.77
21.0959,2055.5772
21.1179,2017.4178
21.1399,1976.1873
21.1619,1995.5271
21.1839,1980.5555
21.2059,2020.6815
21.2279,2010.6214
21.2499,2056.4141
21.2719,2085.5708
21.2939,2009.8484
21.3159,2035.7582
21.3379,2069.823
21.3599,2103.7193
21.3819,2005.8946
21.4039,1965.5619
21.4259,2022.8772
21.4479,2019.0845
21.4699,2018.764
21.4919,1945.6675
21.5139,2048.5105
21.5359,1992.9217
21.5579,1988.8623
21.5799,1931.4488
21.6019,2011.1506
21.6239,1981.1184
21.6459,2016.2724
21.6679,1991.1917
21.6899,2013.9164
21.7119,1997.3614
21.7339,2016.466
21.7559,1962.3642
21.7779,1881.7582
21.7999,1934.447
21.8219,1998.8093
21.8439,2018.1809
21.8659,2001.0325
21.8879,2010.3466
21.9099,2016.9627
21.9319,2053.5281
21.9539,2101.7885
21.9759,2046.4823
21.9979,2058.9558
22.0199,2073.4822
22.0419,2039.0157
22.0639,2038.2315
22.0859,2022.7356
22.1079,2070.939
22.1299,2029.2123
22.1519,1988.6327
22.1739,1998.5193
22.1959,2049.1903
22.2179,2046.3067
22.2399,2009.5512
22.2619,2031.1062
22.2839,2036.8078
22.3059,2070.9813
22.3279,2103.5134
22.3499,2108.8553
22.3719,2071.1923
22.3939,2105.7257
22.4159,2149.063
22.4379,2167.8122
22.4599,2183.6712
22.4819,2179.4187
22.5039,2169.775
22.5259,2196.0088
22.5479,2190.0753
22.5699,2204.4966
22.5919,2231.9691
22.6139,2265.296
22.6359,2347.7475
22.6579,2414
22.6799,2382.1931
22.7019,2411.1791
22.7239,2432.7743
22.7459,2445.1751
22.7679,2509.1456
22.7899,2535.2832
22.8119,2647.9806
22.8339,2736.2537
22.8559,2767.034
22.8779,2824.4731
22.8999,2933.7967
22.9219,2930.3273
22.9439,3062.6842
22.9659,3238.6944
22.9879,3312.9337
23.0099,3401.95
23.0319,3423.7173
23.0539,3562.3543
23.0759,3666.5611
23.0979,3620.6764
23.1199,3698.0489
23.1419,3725.0806
23.1639,3722.6863
23.1859,3635.4069
23.2079,3622.412
23.2299,3532.1444
23.2519,3590.8394
23.2739,3518.2417
23.2959,3304.1107
23.3179,3258.2241
23.3399,3320.8723
23.3619,3214.2545
23.3839,3289.7656
23.4059,3346.9991
23.4279,3304.1081
23.4499,3266.4365
23.4719,3225.9739
23.4939,3172.6548
23.5159,3144.9719
23.5379,3108.6619
23.5599,3201.3613
23.5819,3166.5309
23.6039,3124.1708
23.6259,3239.2318
23.6479,3118.4588
23.6699,3165.778
23.6919,3287.0638
23.7139,3255.9352
23.7359,3259.838
23.7579,3145.3727
23.7799,3170.5397
23.8019,3127.6285
23.8239,3213.5368
23.8459,3175
23.8679,3171.0088
23.8899,3169.6373
23.9119,3206.8127
23.9339,3219.8605
23.9559,3330.0292
23.9779,3408.0264
23.9999,3391.9117
24.0219,3544.6346
24.0439,3770.7702
24.0659,4022.2613
24.0879,4476.8696
24.1099,5039.3698
24.1319,5742.026
24.1539,6628.8335
24.1759,7898.6843
24.1979,9877.8633
24.2199,12490.7881
24.2419,15755.3689
24.2639,18059.4326
24.2859,16476.8564
24.3079,12943.0337
24.3299,10036.7088
24.3519,7057.0792
24.3739,5062.2902
24.3959,4415.1215
24.4179,4207.7785
24.4399,4043.429
24.4619,4034.6806
24.4839,4040.6906
24.5059,3911.2888
24.5279,3735.4879
24.5499,3565.3537
24.5719,3456.7167
24.5939,3483.5783
24.6159,3390.6329
24.6379,3346.0768
24.6599,3369.2989
24.6819,3344.9104
24.7039,3370.95
24.7259,3276.8267
24.7479,3151.9556
24.7699,3156.5576
24.7919,3199.5183
24.8139,3156.7324
24.8359,3034.5322
24.8579,3088.0061
24.8799,3107.4902
24.9019,2915.74
24.9239,2923.1958
24.9459,2945.0639
24.9679,2941.146
24.9899,2906.9055
25.0119,2894.1131
25.0339,2780.3626
25.0559,2760.4582
25.0779,2935.0593
25.0999,2835.7859
25.1219,2733.6124
25.1439,2773.6653
25.1659,2705.9822
25.1879,2751.8782
25.2099,2772.4582
25.2319,2669.7034
25.2539,2667.0039
25.2759,2587.2006
25.2979,2610.1533
25.3199,2571.3836
25.3419,2615.1211
25.3639,2676.283
25.3859,2599
25.4079,2602.3663
25.4299,2644.2479
25.4519,2677.8519
25.4739,2641.2009
25.4959,2828.6212
25.5179,2918.3617
25.5399,2856.6374
25.5619,2984.0179
25.5839,3097.9239
25.6059,3152.4435
25.6279,3198.9706
25.6499,3196.0116
25.6719,3070.0913
25.6939,2958.4775
25.7159,2760.6522
25.7379,2644.6735
25.7599,2608.407
25.7819,2563.2457
25.8039,2487.8454
25.8259,2460.7141
25.8479,2543.964
25.8699,2500.8761
25.8919,2511.5606
25.9139,2530.7472
25.9359,2520.2818
25.9579,2520.2741
25.9799,2473.1088
26.0019,2515.3117
26.0239,2479.5057
26.0459,2392.9861
26.0679,2435.8558
26.0899,2462.9732
26.1119,2351.2782
26.1339,2390.3287
26.1559,2464
26.1779,2403.4511
26.1999,2319.9675
26.2219,2317.18
26.2439,2349.0241
26.2659,2410.1624
26.2879,2414.2964
26.3099,2404.0649
26.3319,2373.9119
26.3539,2400.7347
26.3759,2446.2124
26.3979,2412.9822
26.4199,2385.4675
26.4419,2376.4021
26.4639,2367.6234
26.4859,2306.8287
26.5079,2319.7095
26.5299,2310.0599
26.5519,2376.894
26.5739,2417.2694
26.5959,2432.1873
26.6179,2502.714
26.6399,2490.1022
26.6619,2523.0483
26.6839,2526.2551
26.7059,2513.5054
26.7279,2536.4066
26.7499,2475.4512
26.7719,2554.8566
26.7939,2607.9706
26.8159,2738.2289
26.8379,2704.1385
26.8599,2679.1337
26.8819,2665.2271
26.9039,2632.7915
26.9259,2632.7906
26.9479,2662.2169
26.9699,2600.9851
26.9919,2611.5389
27.0139,2664.8851
27.0359,2567.8272
27.0579,2464.3187
27.0799,2542.1604
27.1019,2374.078
27.1239,2512.6735
27.1459,2499.0529
27.1679,2392.6077
27.1899,2381.2516
27.2119,2315.3393
27.2339,2348.8173
27.2559,2431.1051
27.2779,2399.0973
27.2999,2388.9219
27.3219,2428.0485
27.3439,2551.7302
27.3659,2593.8487
27.3879,2666.8045
27.4099,2736.8438
27.4319,2788.3362
27.4539,2746.9399
27.4759,2675.4039
27.4979,2578.5112
27.5199,2520.9398
27.5419,2412.9289
27.5639,2319.9239
27.5859,2350.7767
27.6079,2300.0664
27.6299,2320.3217
27.6519,2341.4797
27.6739,2268.7226
27.6959,2271.6866
27.7179,2381.186
27.7399,2392.7343
27.7619,2360.9854
27.7839,2435.0296
27.8059,2486.2331
27.8279,2543.3733
27.8499,2612.0709
27.8719,2701.723
27.8939,2760.9212
27.9159,2710.3524
27.9379,2663.6813
27.9599,2607.9571
27.9819,2635.899
28.0039,2624.8464
28.0259,2653.2481
28.0479,2684.6655
28.0699,2725.5814
28.0919,2705.8085
28.1139,2702.0759
28.1359,2744.8806
28.1579,2761.7513
28.1799,2804.9544
28.2019,2818.9262
28.2239,2906.0952
28.2459,2923.9557
28.2679,2960.6757
28.2899,2828.5551
28.3119,2789.9991
28.3339,2751.3892
28.3559,2689.4409
28.3779,2550.1865
28.3999,2508.5074
28.4219,2509
28.4439,2435.8425
28.4659,2335.9437
28.4879,2456.3022
28.5099,2468.9911
28.5319,2461.5177
28.5539,2367.7903
28.5759,2401.1211
28.5979,2483.4663
28.6199,2555.4854
28.6419,2519.5555
28.6639,2697.8411
28.6859,2841.3189
28.7079,2822.4498
28.7299,2813.4336
28.7519,2934.6443
28.7739,2979.5055
28.7959,2973.2006
28.8179,3073.6964
28.8399,3080.9971
28.8619,3144.664
28.8839,3285.2528
28.9059,3341.1665
28.9279,3489.0491
28.9499,3693.7213
28.9719,3524.1024
28.9939,3568.3862
29.0159,3478.1945
29.0379,3385.5465
29.0599,3274.2696
29.0819,3129.223
29.1039,3040.0076
29.1259,2917.1504
29.1479,2861.954
29.1699,2776.9873
29.1919,2800.1533
29.2139,2769.4592
29.2359,2763.521
29.2579,2705.2889
29.2799,2638.1681
29.3019,2618.2134
29.3239,2627.6636
29.3459,2612.2391
29.3679,2635.0972
29.3899,2628.2923
29.4119,2693.2566
29.4339,2664.7629
29.4559,2657.0872
29.4779,2641.9967
29.4999,2564.456
29.5219,2619.7699
29.5439,2577.3597
29.5659,2558.7632
29.5879,2632.3055
29.6099,2660.5309
29.6319,2658.5635
29.6539,2742.4192
29.6759,2841.5945
29.6979,2928.0268
29.7199,2987.5265
29.7419,2960.8278
29.7639,2925.1696
29.7859,2885.4306
29.8079,2897.3625
29.8299,2865.8975
29.8519,2765.4187
29.8739,2689.3283
29.8959,2622.0943
29.9179,2563.7079
29.9399,2566.3344
29.9619,2534.6498
29.9839,2377.355
30.0059,2296.1888
30.0279,2286.031
30.0499,2281.649
30.0719,2235.6046
30.0939,2273.8084
30.1159,2256.2565
30.1379,2195.519
30.1599,2187.1067
30.1819,2282.9088
30.2039,2243.9369
30.2259,2243.6677
30.2479,2346.695
30.2699,2313.1178
30.2919,2382.3149
30.3139,2452.2037
30.3359,2820.5093
30.3579,3684.3472
30.3799,4817.5866
30.4019,4398.1313
30.4239,3837.1571
30.4459,3971.3899
30.4679,3428.5719
30.4899,3023.7337
30.5119,2756.8578
30.5339,2823.2411
30.5559,2769.549
30.5779,2834.9353
30.5999,2874.3462
30.6219,3041.1793
30.6439,3030.4869
30.6659,3100.3663
30.6879,3320.1412
30.7099,3400.753
30.7319,3759.4889
30.7539,4094.9134
30.7759,4491.0436
30.7979,4901.0808
30.8199,5472.6902
30.8419,6552.2646
30.8639,7620.9758
30.8859,9778.0713
30.9079,13368.7716
30.9299,18528.0793
30.9519,26089.0009
30.9739,36605.9202
30.9959,47970.6284
31.0179,55055.3804
31.0399,52154.9384
31.0619,41016.8242
31.0839,31065.7632
31.1059,23646.1213
31.1279,14777.9264
31.1499,8119.3747
31.1719,5804.515
31.1939,5462.7584
31.2159,5593.0608
31.2379,5589.8902
31.2599,5409.2794
31.2819,5366.9622
31.3039,5067.0078
31.3259,4726.6909
31.3479,4481.1486
31.3699,4162.2325
31.3919,3921.1873
31.4139,3678.7339
31.4359,3423.6366
31.4579,3237.8611
31.4799,3115.63
31.5019,2914.4507
31.5239,2797.4676
31.5459,2730.1452
31.5679,2644.2404
31.5899,2586.4826
31.6119,2488.3744
31.6339,2476.947
31.6559,2452.1694
31.6779,2425.531
31.6999,2404.3273
31.7219,2447.7928
31.7439,2458.7693
31.7659,2454.3186
31.7879,2557.6837
31.8099,2721.3377
31.8319,2917.2453
31.8539,3064.2726
31.8759,3166.3935
31.8979,3262.9648
31.9199,3450.8973
31.9419,3604.5686
31.9639,3658.1107
31.9859,3493.8884
32.0079,3415.9173
32.0299,3419.944
32.0519,3103.8103
32.0739,2831.5206
32.0959,2623.1013
32.1179,2533.8238
32.1399,2357.739
32.1619,2232.8994
32.1839,2262.123
32.2059,2346.4437
32.2279,2383.77
32.2499,2555.26
32.2719,2808.6471
32.2939,2966.5933
32.3159,3121.049
32.3379,3036.5288
32.3599,3070.6432
32.3819,3129.7238
32.4039,3433.1517
32.4259,3488.11
32.4479,3870.8655
32.4699,4387.0125
32.4919,4676.5314
32.5139,4851.9802
32.5359,5169.0812
32.5579,5004.8283
32.5799,4744.3801
32.6019,4531.1851
32.6239,4153.4584
32.6459,3428.2842
32.6679,3058.2705
32.6899,2846.3796
32.7119,2515.467
32.7339,2479.4738
32.7559,2490.0802
32.7779,2702.3758
32.7999,2736.7432
32.8219,2690.9854
32.8439,2711.9733
32.8659,2628.1423
32.8879,2517.5042
32.9099,2400.1559
32.9319,2284.7096
32.9539,2321.7846
32.9759,2258.5646
32.9979,2156.8435
33.0199,2079.224
33.0419,2031.7355
33.0639,2029.2497
33.0859,2000.4158
33.1079,1972.8397
33.1299,2015.0602
33.1519,2104.7273
33.1739,2160.0502
33.1959,2180.4273
33.2179,2160.5839
33.2399,2099.8106
33.2619,2086.2901
33.2839,2055.2742
33.3059,2021.9568
33.3279,1978.8597
33.3499,1942.3452
33.3719,1936.6504
33.3939,1946.2941
33.4159,1896.6059
33.4379,1861.8919
33.4599,1835.7751
33.4819,1852.248
33.5039,1845.2663
33.5259,1865.0779
33.5479,1834.429
33.5699,1782.6637
33.5919,1776.2719
33.6139,1832.0002
33.6359,1839.3102
33.6579,1800.2762
33.6799,1859.4649
33.7019,1841.3233
33.7239,1805.2531
33.7459,1836.0208
33.7679,1763.1915
33.7899,1752.5949
33.8119,1817.8512
33.8339,1868.9519
33.8559,1841.9158
33.8779,1807.761
33.8999,1848.2814
33.9219,1884.0011
33.9439,1836.2358
33.9659,1839.0866
33.9879,1830.4926
34.0099,1843.2065
34.0319,1835.0978
34.0539,1790.2005
34.0759,1787.8496
34.0979,1768.3215
34.1199,1773.6455
34.1419,1694.1827
34.1639,1883.8412
34.1859,1859.4129
34.2079,1785.109
34.2299,1790.19
34.2519,1898.7458
34.2739,1890.3364
34.2959,1959.4846
34.3179,2058.1431
34.3399,1889.8791
34.3619,1919.0739
34.3839,1961.6024
34.4059,1847.3098
34.4279,1846.4634
34.4499,1767.1456
34.4719,1799.9868
34.4939,1842.124
34.5159,1874.5407
34.5379,1853.8526
34.5599,1894.834
34.5819,1948.7384
34.6039,1919.6814
34.6259,1913.8397
34.6479,1921.9731
34.6699,1953.6106
34.6919,1940.4204
34.7139,1967.8104
34.7359,2005.7373
34.7579,1973.5871
34.7799,1997.9962
34.8019,2005.5337
34.8239,1923.6762
34.8459,1869.2636
34.8679,1867.9865
34.8899,1820.2773
34.9119,1817.7305
34.9339,1843.5636
34.9559,1827.7066
34.9779,1763.2962
34.9999,1811.1741
35.0219,1784.0962
35.0439,1771.332
35.0659,1824.1151
35.0879,1860.6854
35.1099,1877.5025
35.1319,1901.6786
35.1539,1930.3245
35.1759,1929.528
35.1979,1942.2036
35.2199,1928.8042
35.2419,1904.119
35.2639,1868.4556
35.2859,1857.0158
35.3079,1819.6321
35.3299,1783.4955
35.3519,1878.4753
35.3739,1985.6964
35.3959,2036.8408
35.4179,2037.5329
35.4399,2024.4449
35.4619,2082.5224
35.4839,2094.7718
35.5059,2068.7364
35.5279,2058.792
35.5499,2128.3385
35.5719,2206.0007
35.5939,2205.2241
35.6159,2115.9884
35.6379,1977.3703
35.6599,1905.0839
35.6819,1904.0423
35.7039,1798.3728
35.7259,1717.7373
35.7479,1828.1051
35.7699,1802.698
35.7919,1776.5634
35.8139,1846.5577
35.8359,1805.9645
35.8579,1792.7168
35.8799,1958.0113
35.9019,1884.9555
35.9239,1889.5723
35.9459,1844.4325
35.9679,1858.709
35.9899,1879.8762
36.0119,1752.0767
36.0339,1763.7758
36.0559,1749.2122
36.0779,1662.7355
36.0999,1675.6109
36.1219,1617.7286
36.1439,1623.8573
36.1659,1736.9076
36.1879,1724.0616
36.2099,1622.7021
36.2319,1631.4912
36.2539,1649.053
36.2759,1615.3083
36.2979,1643.9531
36.3199,1707.0455
36.3419,1642.1624
36.3639,1711.6044
36.3859,1749.9261
36.4079,1705.6987
36.4299,1727.6046
36.4519,1708.4826
36.4739,1747.8531
36.4959,1665.0189
36.5179,1726.9291
36.5399,1704.4655
36.5619,1708.6433
36.5839,1763.4971
36.6059,1803.0159
36.6279,1804.0788
36.6499,1733.5134
36.6719,1730.4905
36.6939,1707.4073
36.7159,1757.5915
36.7379,1798.8959
36.7599,1854.6388
36.7819,1861.2978
36.8039,1877.7849
36.8259,2022.5433
36.8479,2242.4697
36.8699,2557.5546
36.8919,2978.6143
36.9139,3559.6774
36.9359,4320.1851
36.9579,5233.5602
36.9799,5658.9792
37.0019,5185.2043
37.0239,4403.876
37.0459,4041.8671
37.0679,3674.0722
37.0899,3028.8969
37.1119,2413.6489
37.1339,2035.7249
37.1559,1842.5252
37.1779,1719.9289
37.1999,1717.5055
37.2219,1684.8671
37.2439,1679.3673
37.2659,1730.126
37.2879,1684.7038
37.3099,1660.7316
37.3319,1643.8913
37.3539,1615.3156
37.3759,1609.5369
37.3979,1540.515
37.4199,1602.6812
37.4419,1720.6375
37.4639,1658.1516
37.4859,1611.6135
37.5079,1529.3611
37.5299,1597.0298
37.5519,1590.1976
37.5739,1522.8287
37.5959,1526.4789
37.6179,1493.6616
37.6399,1533.9647
37.6619,1592.7652
37.6839,1554.6769
37.7059,1632.9884
37.7279,1609.0122
37.7499,1573.7914
37.7719,1389.9095
37.7939,1474.1891
37.8159,1570.1426
37.8379,1579.761
37.8599,1568.3199
37.8819,1505.1703
37.9039,1565.3953
37.9259,1581.7599
37.9479,1526.9198
37.9699,1495.9027
37.9919,1509.0665
38.0139,1544.7541
38.0359,1522.9559
38.0579,1555.214
38.0799,1465.6462
38.1019,1531.5694
38.1239,1551.2919
38.1459,1517.6302
38.1679,1514.3424
38.1899,1571.3481
38.2119,1561.3341
38.2339,1513.5489
38.2559,1571.5967
38.2779,1542.8171
38.2999,1566.3498
38.3219,1602.4797
38.3439,1593.4708
38.3659,1669.8584
38.3879,1685.3442
38.4099,1739.8037
38.4319,1870.5535
38.4539,2032.6485
38.4759,2202.1937
38.4979,2434.4434
38.5199,2680.871
38.5419,2764.535
38.5639,2655.921
38.5859,2427.2219
38.6079,2286.4892
38.6299,2142.1501
38.6519,2000.7272
38.6739,1862.3113
38.6959,1722.1146
38.7179,1635.0452
38.7399,1601.2501
38.7619,1586.885
38.7839,1665.379
38.8059,1719.8938
38.8279,1647.0218
38.8499,1657.3779
38.8719,1665.1631
38.8939,1637.4513
38.9159,1613.2492
38.9379,1619.592
38.9599,1643.0679
38.9819,1661.3167
39.0039,1638.525
39.0259,1593.9379
39.0479,1570.8667
39.0699,1579.8673
39.0919,1581.3643
39.1139,1509.7539
39.1359,1494.0207
39.1579,1470.2595
39.1799,1486.0655
39.2019,1433.0666
39.2239,1419.4027
39.2459,1398.0442
39.2679,1521.7733
39.2899,1471.0882
39.3119,1469.6008
39.3339,1504.769
39.3559,1430.4083
39.3779,1507.6925
39.3999,1498.318
39.4219,1542.4869
39.4439,1645.8464
39.4659,1613.7482
39.4879,1539.8715
39.5099,1645.5166
39.5319,1586.7574
39.5539,1614.5576
39.5759,1625.973
39.5979,1555.7443
39.6199,1530.4647
39.6419,1552.4456
39.6639,1590.7113
39.6859,1543.351
39.7079,1529.5067
39.7299,1487.7612
39.7519,1531.3968
39.7739,1553.1347
39.7959,1556.4796
39.8179,1631.0088
39.8399,1621.771
39.8619,1643.8427
39.8839,1647.919
39.9059,1671.8181
39.9279,1663.8145
39.9499,1638.1299
39.9719,1660.1259
39.9939,1694.478
40.0159,1727.4822
40.0379,1691.7964
40.0599,1660.1769
40.0819,1635.5102
40.1039,1606.5851
40.1259,1620.8025
40.1479,1661.0989
40.1699,1681.706
40.1919,1681.1505
40.2139,1703.6196
40.2359,1736.9185
40.2579,1766.6785
40.2799,1755.2845
40.3019,1732.2724
40.3239,1750.9853
40.3459,1786.658
40.3679,1853.1615
40.3899,1953.6809
40.4119,2023.6371
40.4339,2046.9058
40.4559,2059.519
40.4779,2053.5547
40.4999,2081.2478
40.5219,2095.7867
40.5439,2092.3864
40.5659,1990.2895
40.5879,1967.6045
40.6099,2050.8409
40.6319,2073.9498
40.6539,2048.0068
40.6759,2119.0815
40.6979,2177.3707
40.7199,2246.2147
40.7419,2257.3922
40.7639,2266.1442
40.7859,2330.5371
40.8079,2408.1241
40.8299,2424.3205
40.8519,2362.0347
40.8739,2338
40.8959,2338
40.9179,2376.8595
40.9399,2290.4937
40.9619,2213.459
40.9839,2109.036
41.0059,2063.292
41.0279,2146.963
41.0499,2185.242
41.0719,2082.3329
41.0939,2103.2814
41.1159,2032.0715
41.1379,1978.1002
41.1599,2129.9676
41.1819,2038.2562
41.2039,1984.1813
41.2259,1981.8387
41.2479,2091.9365
41.2699,2213.2747
41.2919,2155.9315
41.3139,2094.8877
41.3359,2057.6902
41.3579,2106.656
41.3799,2069.9351
41.4019,2057.4158
41.4239,2022.3906
41.4459,1940.4948
41.4679,1996.2905
41.4899,1985.7385
41.5119,2013.4829
41.5339,2047.9644
41.5559,1991.2159
41.5779,2014.7069
41.5999,1980.2035
41.6219,1973.4839
41.6439,1993.5445
41.6659,1922.3039
41.6879,1942.7272
41.7099,1937.7961
41.7319,1856.3365
41.7539,1917.1456
41.7759,1955.3861
41.7979,1982.3274
41.8199,1970.9704
41.8419,1946.4119
41.8639,1968.8205
41.8859,2059.578
41.9079,2050.842
41.9299,2117.1828
41.9519,2113.6491
41.9739,2130.1956
41.9959,2101.407
42.0179,2090.2763
42.0399,2060.9393
42.0619,2025.9794
42.0839,2023.0701
42.1059,1976.4365
42.1279,1965.8894
42.1499,1950.5573
42.1719,1939.6339
42.1939,1964.0177
42.2159,1965.977
42.2379,1960.4876
42.2599,1901.7505
42.2819,1852.3785
42.3039,1900.7717
42.3259,1914.693
42.3479,1854.5967
42.3699,1828.766
42.3919,1832.1372
42.4139,1929.8776
42.4359,1953.5371
42.4579,1936.1535
42.4799,1990.4973
42.5019,2065.1546
42.5239,2104.2464
42.5459,2331.0404
42.5679,2465.4047
42.5899,2942.4535
42.6119,3808.2316
42.6339,5217.248
42.6559,7115.8382
42.6779,8410.5057
42.6999,8024.299
42.7219,6347.0823
42.7439,5407.3166
42.7659,5456.0382
42.7879,5235.9546
42.8099,4125.6104
42.8319,3134.7749
42.8539,2549.5706
42.8759,2355.326
42.8979,2237.7017
42.9199,2224.4631
42.9419,2216.2192
42.9639,2198.9734
42.9859,2056.1853
43.0079,2132.4949
43.0299,2107.6194
43.0519,2074.935
43.0739,2063.4818
43.0959,1988.7633
43.1179,2072.9
43.1399,2025.5652
43.1619,2014.15
43.1839,2166.5709
43.2059,2210.0483
43.2279,2258.2534
43.2499,2473.2658
43.2719,2586.9245
43.2939,2788.6014
43.3159,2678.4639
43.3379,2471.2877
43.3599,2342.2725
43.3819,2229.2831
43.4039,2182.4356
43.4259,2035.6673
43.4479,1924.476
43.4699,1822.0971
43.4919,1753.8743
43.5139,1693.6727
43.5359,1730.0722
43.5579,1715.5557
43.5799,1756.9381
43.6019,1760.9872
43.6239,1763.4818
43.6459,1777.7406
43.6679,1807.518
43.6899,1769.4886
43.7119,1762.3231
43.7339,1782.2822
43.7559,1782.6701
43.7779,1772.4778
43.7999,1782.7308
43.8219,1782.2887
43.8439,1710.7418
43.8659,1695.4513
43.8879,1721.7141
43.9099,1752.0825
43.9319,1746.3846
43.9539,1757.8003
43.9759,1749.1018
43.9979,1808.2934
44.0199,1856.0702
44.0419,1854.7936
44.0639,1867.9902
44.0859,1787.3495
44.1079,1748.4766
44.1299,1792.4612
44.1519,1750.362
44.1739,1744.248
44.1959,1785.3093
44.2179,1787.3176
44.2399,1736.7564
44.2619,1692.8426
44.2839,1704.0906
44.3059,1703.1976
44.3279,1680.9945
44.3499,1642.4236
44.3719,1641.2169
44.3939,1646.6214
44.4159,1653.7173
44.4379,1658.4277
44.4599,1656.8215
44.4819,1675.1997
44.5039,1636.2048
44.5259,1638.5497
44.5479,1727.7349
44.5699,1709.4688
44.5919,1674.8028
44.6139,1772.9611
44.6359,1725.2696
44.6579,1663.9772
44.6799,1703.3969
44.7019,1701.6637
44.7239,1765.5239
44.7459,1816.6393
44.7679,1837.27
44.7899,1910.9314
44.8119,1802.6481
44.8339,1853.7819
44.8559,1850.4208
44.8779,1813.5318
44.8999,1882.9545
44.9219,1953.899
44.9439,1908.1616
44.9659,1936.6901
44.9879,1899.6107
45.0099,1792.611
45.0319,1898.5547
45.0539,1931.7542
45.0759,1926.4933
45.0979,1705.1597
45.1199,1817.0511
45.1419,1798.0321
45.1639,1716.0753
45.1859,1726.5035
45.2079,1730.7554
45.2299,1671.9148
45.2519,1742.4468
45.2739,1712.2201
45.2959,1676.4203
45.3179,1658.3813
45.3399,1599.9602
45.3619,1618.9648
45.3839,1682.7535
45.4059,1752.9252
45.4279,1743.9366
45.4499,1723.7951
45.4719,1659.1633
45.4939,1668.0618
45.5159,1633.8323
45.5379,1620.5684
45.5599,1623.4379
45.5819,1593.1159
45.6039,1573.1735
45.6259,1555.6518
45.6479,1581.1243
45.6699,1651.1632
45.6919,1665.453
45.7139,1710.242
45.7359,1691.072
45.7579,1644.938
45.7799,1654.8359
45.8019,1709.1212
45.8239,1792.962
45.8459,1722.8861
45.8679,1671.0727
45.8899,1681.6427
45.9119,1677.3026
45.9339,1721.8939
45.9559,1750.7922
45.9779,1699.8138
45.9999,1761.4412
46.0219,1875.3306
46.0439,2010.834
46.0659,2327.6218
46.0879,2844.0684
46.1099,3682.9001
46.1319,4669.7527
46.1539,5032.2656
46.1759,4375.1514
46.1979,3465.7522
46.2199,3197.1961
46.2419,3289.9906
46.2639,3134.6854
46.2859,2597.8061
46.3079,2080.1788
46.3299,1716.229
46.3519,1590.3095
46.3739,1523.4983
46.3959,1535.0409
46.4179,1495.0765
46.4399,1483.3353
46.4619,1431.4767
46.4839,1516.2629
46.5059,1512.0078
46.5279,1460.5165
46.5499,1504.9471
46.5719,1435.7937
46.5939,1430.7552
46.6159,1416.1091
46.6379,1469.6924
46.6599,1402.3105
46.6819,1472.5342
46.7039,1473.0403
46.7259,1466.055
46.7479,1487.0664
46.7699,1501.5653
46.7919,1478.1468
46.8139,1545.9938
46.8359,1459.9134
46.8579,1578.047
46.8799,1524.5798
46.9019,1559.071
46.9239,1595.3759
46.9459,1561.9029
46.9679,1622.6403
46.9899,1684.3552
47.0119,1781.0437
47.0339,2030.8571
47.0559,2291.4887
47.0779,2859.5566
47.0999,3405.2276
47.1219,3672.2037
47.1439,3419.4988
47.1659,3030.4062
47.1879,2627.7527
47.2099,2629.4365
47.2319,2573.6229
47.2539,2364.7449
47.2759,2004.4695
47.2979,1744.0229
47.3199,1590.4043
47.3419,1524.5574
47.3639,1504.8801
47.3859,1515.0826
47.4079,1511.0294
47.4299,1453.2041
47.4519,1439.8432
47.4739,1557.9619
47.4959,1572.8401
47.5179,1561.0385
47.5399,1569.9557
47.5619,1593.9806
47.5839,1625.5132
47.6059,1709.8532
47.6279,1850.6778
47.6499,1951.9867
47.6719,2053.2142
47.6939,2055.6939
47.7159,1967.9313
47.7379,1889.6635
47.7599,1819.5543
47.7819,1746.9988
47.8039,1691.6577
47.8259,1689.3806
47.8479,1612.7237
47.8699,1470.6219
47.8919,1453.7524
47.9139,1464.4739
47.9359,1472.0266
47.9579,1404.5129
47.9799,1442.7364
48.0019,1462.3097
48.0239,1441.9365
48.0459,1426.5152
48.0679,1402.227
48.0899,1423.6589
48.1119,1461.3595
48.1339,1468.4425
48.1559,1477.4927
48.1779,1485.6234
48.1999,1443.7712
48.2219,1453.8703
48.2439,1472.2837
48.2659,1552.5785
48.2879,1529.6783
48.3099,1495.0559
48.3319,1407.3979
48.3539,1453.8055
48.3759,1385.9687
48.3979,1475.3308
48.4199,1415.4245
48.4419,1428.1151
48.4639,1390.4748
48.4859,1367.5407
48.5079,1451.9433
48.5299,1395.0001
48.5519,1410.791
48.5739,1394.1229
48.5959,1398.0412
48.6179,1373.3933
48.6399,1382.5979
48.6619,1405.1562
48.6839,1385.0975
48.7059,1406.7901
48.7279,1316.3898
48.7499,1411.4522
48.7719,1379.9464
48.7939,1389.8349
48.8159,1415.8349
48.8379,1434.2792
48.8599,1432.8217
48.8819,1452.9703
48.9039,1406.9852
48.9259,1401.4958
48.9479,1446.1976
48.9699,1418.3173
48.9919,1370.5503
49.0139,1375.8266
49.0359,1319.1097
49.0579,1341.4545
49.0799,1360.0214
49.1019,1348.607
49.1239,1372.128
49.1459,1326.0454
49.1679,1359.6933
49.1899,1350.9761
49.2119,1304.5241
49.2339,1305.4267
49.2559,1269.7401
49.2779,1274.0732
49.2999,1338.966
49.3219,1345.1417
49.3439,1357.5402
49.3659,1326.7845
49.3879,1323.7361
49.4099,1339.0668
49.4319,1362.2126
49.4539,1411.714
49.4759,1470.5248
49.4979,1483.4492
49.5199,1439.4511
49.5419,1490.9356
49.5639,1620.3658
49.5859,1836.8329
49.6079,2115.623
49.6299,2596.1921
49.6519,3178.154
49.6739,3923.5155
49.6959,4740.3265
49.7179,4955.2651
49.7399,4183.4152
49.7619,3328.2922
49.7839,3099.8982
49.8059,3084.0294
49.8279,3095.4042
49.8499,2688.2811
49.8719,2062.6544
49.8939,1680.4817
49.9159,1494.0746
49.9379,1467.8663
49.9599,1417.2711
49.9819,1420.2243
50.0039,1373.7662
50.0259,1352.1347
50.0479,1315.2285
50.0699,1311.5811
50.0919,1308.5093
50.1139,1394.726
50.1359,1287.5629
50.1579,1283.0954
50.1799,1307.9677
50.2019,1335.2213
50.2239,1260.3404
50.2459,1295.3069
50.2679,1279.5221
50.2899,1245.5682
50.3119,1213.1415
50.3339,1266.5829
50.3559,1214.7661
50.3779,1251.7079
50.3999,1244.4765
50.4219,1272.1217
50.4439,1212.7835
50.4659,1274.3067
50.4879,1241.7462
50.5099,1219.2566
50.5319,1210.2747
50.5539,1199.4162
50.5759,1255.7048
50.5979,1209.455
50.6199,1171.0474
50.6419,1212.2596
50.6639,1210.8873
50.6859,1186.7268
50.7079,1210.7345
50.7299,1208.2939
50.7519,1181.414
50.7739,1221.7262
50.7959,1280.2305
50.8179,1185.183
50.8399,1216.2641
50.8619,1236.12
50.8839,1251.715
50.9059,1264.8494
50.9279,1257.9289
50.9499,1284.296
50.9719,1286.2788
50.9939,1291.6234
51.0159,1301.5001
51.0379,1312.3834
51.0599,1299.4518
51.0819,1289.5939
51.1039,1270.1061
51.1259,1241.5427
51.1479,1230.4626
51.1699,1219.6017
51.1919,1243.5416
51.2139,1248.5327
51.2359,1218.5826
51.2579,1193.6989
51.2799,1170.6819
51.3019,1186.1682
51.3239,1182.4148
51.3459,1175.5861
51.3679,1201.8364
51.3899,1167.7814
51.4119,1160.8458
51.4339,1191.0709
51.4559,1198.3653
51.4779,1208.3521
51.4999,1234.4382
51.5219,1253.059
51.5439,1207.7608
51.5659,1166.2034
51.5879,1156.5831
51.6099,1218.7054
51.6319,1190.221
51.6539,1249.26
51.6759,1210.0867
51.6979,1216.717
51.7199,1225
51.7419,1215.466
51.7639,1216.2272
51.7859,1201.4375
51.8079,1164.7452
51.8299,1145.3451
51.8519,1245.7143
51.8739,1162.2837
51.8959,1207.7569
51.9179,1218.6785
51.9399,1166.5032
51.9619,1194.0267
51.9839,1199.7891
52.0059,1207.5359
52.0279,1182.2344
52.0499,1126.872
52.0719,1139.683
52.0939,1190.5489
52.1159,1184.0482
52.1379,1197.6853
52.1599,1178.6446
52.1819,1201
52.2039,1199.1587
52.2259,1172.9444
52.2479,1265.8984
52.2699,1184.7583
52.2919,1230.0224
52.3139,1281.392
52.3359,1196.0938
52.3579,1184.0415
52.3799,1218.3024
52.4019,1132.9381
52.4239,1148.7021
52.4459,1172.0958
52.4679,1241.391
52.4899,1185.6551
52.5119,1226.7436
52.5339,1195.4555
52.5559,1232.2786
52.5779,1202.2153
52.5999,1216.7048
52.6219,1230.3831
52.6439,1168.0262
52.6659,1205.6608
52.6879,1216.323
52.7099,1238.1241
52.7319,1280
52.7539,1272.0825
52.7759,1262.0939
52.7979,1299.7575
52.8199,1321.6236
52.8419,1255.866
52.8639,1272.4036
52.8859,1348.6372
52.9079,1347.0815
52.9299,1359.8272
52.9519,1386.118
52.9739,1385.9312
52.9959,1366.2161
53.0179,1366.832
53.0399,1395.7557
53.0619,1386.5731
53.0839,1405.1109
53.1059,1408.0687
53.1279,1520.4006
53.1499,1700.1953
53.1719,1829.2099
53.1939,2108.7744
53.2159,2493.8393
53.2379,3038.6034
53.2599,3688.7494
53.2819,3698.6535
53.3039,3352.4961
53.3259,3019.8954
53.3479,2703.9427
53.3699,2756.8475
53.3919,2740.9204
53.4139,2495.0578
53.4359,2164.5729
53.4579,1881.1681
53.4799,1771.836
53.5019,1609.4437
53.5239,1460.3402
53.5459,1521.0624
53.5679,1580.4741
53.5899,1719.6575
53.6119,1878.7602
53.6339,2110.9214
53.6559,2499.4383
53.6779,3035.1084
53.6999,3188.2865
53.7219,3033.2726
53.7439,2551.2044
53.7659,2160.9473
53.7879,2140.5005
53.8099,2157.1476
53.8319,2185.9023
53.8539,2044.7319
53.8759,1685.7773
53.8979,1485.1919
53.9199,1372.5588
53.9419,1332.9379
53.9639,1286.8464
53.9859,1229.7228
54.0079,1245.0886
54.0299,1260.5447
54.0519,1242.5103
54.0739,1244.7875
54.0959,1217.4121
54.1179,1239.5606
54.1399,1237.8666
54.1619,1124.8491
54.1839,1216.3302
54.2059,1188.5282
54.2279,1225
54.2499,1219.3253
54.2719,1181.0262
54.2939,1137.2156
54.3159,1198.4182
54.3379,1226.9023
54.3599,1173.3998
54.3819,1188.7306
54.4039,1177.5765
54.4259,1163.0543
54.4479,1182.5048
54.4699,1162.2744
54.4919,1161.6912
54.5139,1157.7454
54.5359,1159.0899
54.5579,1145.7482
54.5799,1152.862
54.6019,1175.7226
54.6239,1206.8672
54.6459,1245.7372
54.6679,1207.8451
54.6899,1175.3666
54.7119,1198.3707
54.7339,1237.0942
54.7559,1199.5623
54.7779,1177.1681
54.7999,1189.1241
54.8219,1170.8414
54.8439,1170.4
54.8659,1174.3892
54.8879,1136.7492
54.9099,1116.9695
54.9319,1150.369
54.9539,1191.7798
54.9759,1208.418
54.9979,1220.1357
55.0199,1197.0878
55.0419,1171.4277
55.0639,1184.863
55.0859,1157.2239
55.1079,1169.0513
55.1299,1163.3804
55.1519,1159.5969
55.1739,1204.0022
55.1959,1152.9259
55.2179,1212.4322
55.2399,1203.3149
55.2619,1210.5488
55.2839,1241.7474
55.3059,1260.7847
55.3279,1298.3114
55.3499,1247.8532
55.3719,1236.4676
55.3939,1216.9645
55.4159,1202.8348
55.4379,1243.9697
55.4599,1211.7741
55.4819,1248.4309
55.5039,1210.0829
55.5259,1228.6225
55.5479,1323.085
55.5699,1430.8461
55.5919,1453.1269
55.6139,1607.2357
55.6359,1582.9595
55.6579,1656.6552
55.6799,1524.7241
55.7019,1403.1928
55.7239,1430.1753
55.7459,1388.0944
55.7679,1384.8735
55.7899,1254.6433
55.8119,1311.4894
55.8339,1246.9359
55.8559,1211.8142
55.8779,1207.054
55.8999,1177.6523
55.9219,1150.0621
55.9439,1185.4209
55.9659,1194.3088
55.9879,1197.8334
56.0099,1195.3675
56.0319,1140.2787
56.0539,1143.7878
56.0759,1181.6833
56.0979,1147.2936
56.1199,1108.5226
56.1419,1179.1769
56.1639,1166.155
56.1859,1175.7403
56.2079,1180.2748
56.2299,1235.2652
56.2519,1186.885
56.2739,1200.1407
56.2959,1203.7564
56.3179,1202.0829
56.3399,1233.2903
56.3619,1198.5025
56.3839,1207.9824
56.4059,1193.3871
56.4279,1151.7001
56.4499,1138.9291
56.4719,1133.682
56.4939,1138.3038
56.5159,1156.6978
56.5379,1165.4118
56.5599,1146.0275
56.5819,1165.9382
56.6039,1181.381
56.6259,1177.5693
56.6479,1167.7565
56.6699,1187.5755
56.6919,1185.6807
56.7139,1146.1149
56.7359,1115.0476
56.7579,1113.1466
56.7799,1142.5385
56.8019,1195.5293
56.8239,1132.1789
56.8459,1117.5312
56.8679,1141.6082
56.8899,1148.6942
56.9119,1146.2197
56.9339,1140.5241
56.9559,1108.5785
56.9779,1039.8581
56.9999,1043.6221
57.0219,1090.9619
57.0439,1086.5972
57.0659,1100.9922
57.0879,1101.5314
57.1099,1093.6519
57.1319,1140.3483
57.1539,1152
57.1759,1133.7315
57.1979,1103.877
57.2199,1136.6187
57.2419,1116.1149
57.2639,1147.1821
57.2859,1191.2411
57.3079,1097.4494
57.3299,1115.4092
57.3519,1165.3645
57.3739,1123.8316
57.3959,1130.533
57.4179,1130.0344
57.4399,1122.177
57.4619,1233.8894
57.4839,1216.9064
57.5059,1178.4689
57.5279,1141.3232
57.5499,1084.1862
57.5719,1161.8967
57.5939,1154.1196
57.6159,1075.6209
57.6379,1171.8055
57.6599,1203.6423
57.6819,1142.6364
57.7039,1177.997
57.7259,1170.3117
57.7479,1156.5528
57.7699,1107.8674
57.7919,1120.9569
57.8139,1067.1761
57.8359,1087.9692
57.8579,1126.5705
57.8799,1163.3156
57.9019,1146.4482
57.9239,1112.5652
57.9459,1103.2825
57.9679,1139.4451
57.9899,1093.4219
58.0119,1093.9689
58.0339,1106.9031
58.0559,1146.7631
58.0779,1074.9822
58.0999,1069.5856
58.1219,1088.4603
58.1439,1102.5984
58.1659,1113.9027
58.1879,1124.2084
58.2099,1128.3049
58.2319,1131.3761
58.2539,1123.2694
58.2759,1114.7708
58.2979,1102.8849
58.3199,1094.2438
58.3419,1119.3906
58.3639,1158.4116
58.3859,1146.2506
58.4079,1155.0091
58.4299,1159.7609
58.4519,1168.7067
58.4739,1204.2223
58.4959,1219.6785
58.5179,1227.4809
58.5399,1245.9957
58.5619,1282.3984
58.5839,1323.6806
58.6059,1315.0864
58.6279,1279.8273
58.6499,1345.1588
58.6719,1389.9971
58.6939,1392
58.7159,1421.012
58.7379,1461.4191
58.7599,1604.6233
58.7819,1761.7794
58.8039,2070.333
58.8259,2572.7016
58.8479,3395.8217
58.8699,4644.2499
58.8919,6318.9622
58.9139,7822.5571
58.9359,8079.5898
58.9579,6787.1493
58.9799,4799.2552
59.0019,3862.4117
59.0239,3957.9037
59.0459,4475.6957
59.0679,4694.0863
59.0899,4151.5812
59.1119,2978.1832
59.1339,2181.4784
59.1559,1708.2207
59.1779,1425.7018
59.1999,1276.4758
59.2219,1265.1593
59.2439,1333.0165
59.2659,1233.1982
59.2879,1277.2892
59.3099,1305.4298
59.3319,1328.2243
59.3539,1454.0628
59.3759,1641.343
59.3979,1709.8564
59.4199,1707.9159
59.4419,1703.1453
59.4639,1658.1987
59.4859,1590.9589
59.5079,1623.5358
59.5299,1601.7277
59.5519,1596.5307
59.5739,1528.3083
59.5959,1433.6094
59.6179,1395.0265
59.6399,1380.0297
59.6619,1358.8313
59.6839,1416.5587
59.7059,1340.0527
59.7279,1261.2417
59.7499,1244.7643
59.7719,1268.7175
59.7939,1215.8651
59.8159,1196.0222
59.8379,1201.2014
59.8599,1190.5361
59.8819,1192.7312
59.9039,1147.291
59.9259,1125.4609
59.9479,1110.4693
59.9699,1134.6076
59.9919,1108.698
60.0139,1091.5841
60.0359,1099.5645
60.0579,1117.6077
60.0799,1169.4695
60.1019,1219.6745
60.1239,1243.2564
60.1459,1244.5779
60.1679,1209.9763
60.1899,1208.6284
60.2119,1202.4689
60.2339,1184.3785
60.2559,1142.8296
60.2779,1147.1153
60.2999,1112.1254
60.3219,1108.5726
60.3439,1126.7949
60.3659,1158.5932
60.3879,1164.8784
60.4099,1139.345
60.4319,1110.2172
60.4539,1063.927
60.4759,1080.3763
60.4979,1118.2764
60.5199,1058.1372
60.5419,1014.4925
60.5639,1019.1249
60.5859,1100.9631
60.6079,1044.4995
60.6299,996.2378
60.6519,952.1537
60.6739,1010.8352
60.6959,1040.3604
60.7179,1000.1099
60.7399,1013.8246
60.7619,982.3115
60.7839,980.0767
60.8059,941.5131
60.8279,1042.0964
60.8499,1001.4884
60.8719,1022.6491
60.8939,998.7727
60.9159,1032.7947
60.9379,990.3243
60.9599,977.5555
60.9819,1003.7887
61.0039,1037.9471
61.0259,1000.7284
61.0479,1016.8914
61.0699,1054.7697
61.0919,1014.7081
61.1139,947.6218
61.1359,1030.8717
61.1579,1026.5682
61.1799,1001.5285
61.2019,991.2564
61.2239,951.5857
61.2459,990.0228
61.2679,1018.214
61.2899,1031.3932
61.3119,1009.2577
61.3339,1029.4427
61.3559,1068.3138
61.3779,1089.6275
61.3999,1096.5395
61.4219,1029.7334
61.4439,1008.3554
61.4659,1008.4986
61.4879,1021.5493
61.5099,1034.7414
61.5319,1027.3038
61.5539,1004.2899
61.5759,979.9466
61.5979,1009.5222
61.6199,1021.3627
61.6419,993.3774
61.6639,982.6168
61.6859,1030.9509
61.7079,1045.2611
61.7299,1057.3688
61.7519,1078.447
61.7739,1081.8258
61.7959,1042.6591
61.8179,1026.4426
61.8399,1040.2556
61.8619,1075.6641
61.8839,1140.8876
61.9059,1114.2847
61.9279,1080.866
61.9499,1087.0785
61.9719,1056.7245
61.9939,1061.7966
62.0159,1075.7935
62.0379,1092.1349
62.0599,1073.9009
62.0819,1057.2833
62.1039,1079.006
62.1259,1082.4454
62.1479,1064.6203
62.1699,1092.607
62.1919,1133.9824
62.2139,1125.6488
62.2359,1170.8731
62.2579,1270.3102
62.2799,1206.8046
62.3019,1203.3464
62.3239,1182.4363
62.3459,1168.8751
62.3679,1172.9243
62.3899,1206.7082
62.4119,1247.4707
62.4339,1247.0167
62.4559,1198.746
62.4779,1173.3195
62.4999,1155.5132
62.5219,1150.3658
62.5439,1166.5881
62.5659,1207.0346
62.5879,1208.8761
62.6099,1220.1279
62.6319,1169.2858
62.6539,1186.9441
62.6759,1137.6172
62.6979,1215.3053
62.7199,1261.9648
62.7419,1194.4982
62.7639,1190.9523
62.7859,1274.9208
62.8079,1165.6568
62.8299,1189.7081
62.8519,1165.1805
62.8739,1286.4354
62.8959,1243.6284
62.9179,1155.4602
62.9399,1168.1648
62.9619,1185.9722
62.9839,1127.9559
63.0059,1147.7992
63.0279,1112.7831
63.0499,1187.4039
63.0719,1152.9902
63.0939,1172.6039
63.1159,1205.7654
63.1379,1185.9044
63.1599,1163.2315
63.1819,1252.3722
63.2039,1351.746
63.2259,1343.6463
63.2479,1229.3408
63.2699,1233.0097
63.2919,1196.8607
63.3139,1171.9706
63.3359,1219.7228
63.3579,1310.241
63.3799,1314.398
63.4019,1276.8525
63.4239,1282.2842
63.4459,1246.9994
63.4679,1210.4017
63.4899,1268.1777
63.5119,1231.7064
63.5339,1219.47
63.5559,1222.1323
63.5779,1226.7433
63.5999,1242.13
63.6219,1236.33
63.6439,1197.3275
63.6659,1240.0437
63.6879,1264.2584
63.7099,1240.5958
63.7319,1210.8783
63.7539,1195.6353
63.7759,1232.8498
63.7979,1256
63.8199,1221.836
63.8419,1219.6197
63.8639,1204.1536
63.8859,1225.2285
63.9079,1269.8718
63.9299,1292.9048
63.9519,1262.1098
63.9739,1249.8231
63.9959,1243.9065
64.0179,1249.711
64.0399,1218.4186
64.0619,1256.5865
64.0839,1269.5146
64.1059,1274.2331
64.1279,1211.8501
64.1499,1205.3463
64.1719,1211.5221
64.1939,1240.2981
64.2159,1246.1824
64.2379,1257.4131
64.2599,1217.6541
64.2819,1179.5869
64.3039,1199.0061
64.3259,1236.3493
64.3479,1243.8373
64.3699,1246.5487
64.3919,1264.2371
64.4139,1279.238
64.4359,1218.0631
64.4579,1245.0503
64.4799,1261.7542
64.5019,1336.8647
64.5239,1295.2844
64.5459,1434.1836
64.5679,1546.6598
64.5899,1687.1462
64.6119,1936.2063
64.6339,2156.361
64.6559,2494.7196
64.6779,2462.6199
64.6999,2346.0769
64.7219,2082.8023
64.7439,1886.6224
64.7659,1790.0181
64.7879,1868.1691
64.8099,1862.72
64.8319,1893.37
64.8539,1827.2879
64.8759,1609.8485
64.8979,1502.4007
64.9199,1407.5307
64.9419,1370.7948
64.9639,1401.1191
64.9859,1338.5446
65.0079,1335.0382
65.0299,1372.6986
65.0519,1323.2891
65.0739,1401
65.0959,1402.0207
65.1179,1413.8261
65.1399,1457.023
65.1619,1567.0365
65.1839,1786.5179
65.2059,2001.9261
65.2279,2116.6313
65.2499,2046.2526
65.2719,1817.282
65.2939,1608.2057
65.3159,1492.1207
65.3379,1521.8227
65.3599,1626.3144
65.3819,1658.2243
65.4039,1654.1827
65.4259,1559.2026
65.4479,1418.4322
65.4699,1329.4784
65.4919,1279.2831
65.5139,1269.5791
65.5359,1241.4516
65.5579,1218.5398
65.5799,1241.5484
65.6019,1271.2194
65.6239,1237.6383
65.6459,1218.7484
65.6679,1212.0338
65.6899,1212.6756
65.7119,1195.4314
65.7339,1167.2143
65.7559,1192.8188
65.7779,1186.5524
65.7999,1209.6119
65.8219,1179.1206
65.8439,1199.4414
65.8659,1174.0252
65.8879,1162.4647
65.9099,1213.8558
65.9319,1196.8886
65.9539,1154.3538
65.9759,1157.4426
65.9979,1215.8961
66.0199,1161.2606
66.0419,1180.7515
66.0639,1130.71
66.0859,1154.605
66.1079,1166.4617
66.1299,1213.6394
66.1519,1315.9652
66.1739,1294.4157
66.1959,1230.5985
66.2179,1256.3984
66.2399,1323.6011
66.2619,1399.9011
66.2839,1583.4258
66.3059,1688.3928
66.3279,1892.1845
66.3499,1875.3273
66.3719,1911.7539
66.3939,1752.2243
66.4159,1679.5159
66.4379,1583.872
66.4599,1559.0328
66.4819,1618.8851
66.5039,1649.1703
66.5259,1670.6455
66.5479,1573.1501
66.5699,1518.2133
66.5919,1503.1786
66.6139,1439.631
66.6359,1398.1993
66.6579,1425.6003
66.6799,1350.108
66.7019,1402.4945
66.7239,1376.9059
66.7459,1340.3361
66.7679,1312.1071
66.7899,1302.1858
66.8119,1277.6766
66.8339,1223.0464
66.8559,1236.3546
66.8779,1161.9465
66.8999,1112.9976
66.9219,1129.7532
66.9439,1143.3275
66.9659,1156.6007
66.9879,1136.6389
67.0099,1117.9796
67.0319,1132.2024
67.0539,1127.5952
67.0759,1163.4705
67.0979,1144.8012
67.1199,1107.492
67.1419,1084.4071
67.1639,1080.7684
67.1859,1078.1544
67.2079,1083.5266
67.2299,1095.1318
67.2519,1084.2899
67.2739,1051.8966
67.2959,1039.8427
67.3179,1061.8832
67.3399,1068.8229
67.3619,1042.8445
67.3839,1054.6718
67.4059,1065.994
67.4279,1069.3925
67.4499,1113.6483
67.4719,1080.1573
67.4939,1067.7446
67.5159,1109.8586
67.5379,1154.3542
67.5599,1173.6318
67.5819,1170.7797
67.6039,1123.0557
67.6259,1094.3195
67.6479,1107.6614
67.6699,1105.2949
67.6919,1078.4236
67.7139,1120.6818
67.7359,1165.0931
67.7579,1097.5344
67.7799,1082.3201
67.8019,1099.8054
67.8239,1086.8563
67.8459,1097.0394
67.8679,1105.0192
67.8899,1030.0998
67.9119,1059.3916
67.9339,1091.6993
67.9559,1069.5569
67.9779,1004.4293
67.9999,1024.8379
68.0219,1018.3215
68.0439,983.6198
68.0659,1021.1507
68.0879,1103.7738
68.1099,1060.2308
68.1319,1034.168
68.1539,1013.7275
68.1759,1028.6146
68.1979,1113.9857
68.2199,1048.9955
68.2419,1039.335
68.2639,988.8276
68.2859,1020.8131
68.3079,1015.6524
68.3299,1007.9468
68.3519,994.8212
68.3739,1030.4327
68.3959,1035.2965
68.4179,1038.4445
68.4399,1053.8471
68.4619,1117.2381
68.4839,994.6193
68.5059,1033.8117
68.5279,958.4914
68.5499,1002.706
68.5719,1000.1545
68.5939,1011.9528
68.6159,1010.6608
68.6379,1026.3187
68.6599,1041.8273
68.6819,1033.4997
68.7039,1040.9132
68.7259,1011.4957
68.7479,1016.7485
68.7699,980.1544
68.7919,970.9172
68.8139,965.9267
68.8359,1017.7232
68.8579,1015.289
68.8799,1002.0462
68.9019,995.0924
68.9239,987.2743
68.9459,985.2793
68.9679,1019.7771
68.9899,1043.2181
69.0119,1021.8992
69.0339,1015.2684
69.0559,996.1031
69.0779,1013.0289
69.0999,1040.6651
69.1219,1021.9291
69.1439,986.0971
69.1659,999.6759
69.1879,1063.6891
69.2099,1079.6961
69.2319,1063.3799
69.2539,1084.3306
69.2759,1105
69.2979,1154.4262
69.3199,1209.1418
69.3419,1177.8315
69.3639,1175.306
69.3859,1163.575
69.4079,1135.3873
69.4299,1085.3802
69.4519,1100.1286
69.4739,1138.4348
69.4959,1083.796
69.5179,1095.0091
69.5399,1080.9575
69.5619,1092.007
69.5839,1066.9732
69.6059,1063.1987
69.6279,1046.109
69.6499,1103.3544
69.6719,1106.8244
69.6939,1100.704
69.7159,1097.4911
69.7379,1136.8832
69.7599,1132.8087
69.7819,1111.7904
69.8039,1094.8328
69.8259,1070.5564
69.8479,1061.6298
69.8699,1114.4949
69.8919,1073.2038
69.9139,1077.5753
69.9359,1102.9392
69.9579,1121.4868
69.9799,1091.5028
70.0019,1072.0746
70.0239,1073.7491
70.0459,1044
70.0679,1044.7577
70.0899,1066.3215
70.1119,1051.022
70.1339,1035.1396
70.1559,1035.9326
70.1779,1023.3392
70.1999,1026.0688
70.2219,1097.0027
70.2439,1053.1738
70.2659,1018.7674
70.2879,1082.3766
70.3099,1055.6276
70.3319,969.4114
70.3539,1102.2291
70.3759,1093.2594
70.3979,1075.3462
70.4199,1087.556
70.4419,1094.142
70.4639,1130.4111
70.4859,1085.9885
70.5079,1137.8055
70.5299,1155.0894
70.5519,1167.111
70.5739,1187.0114
70.5959,1147.1334
70.6179,1166.2162
70.6399,1164.1653
70.6619,1167.5023
70.6839,1144.7542
70.7059,1189.2219
70.7279,1289.9375
70.7499,1394.4717
70.7719,1563.3669
70.7939,1789.375
70.8159,2106.4924
70.8379,2641.6881
70.8599,3376.2074
70.8819,4182.561
70.9039,5057.0051
70.9259,5533.9058
70.9479,4947.2488
70.9699,3819.5604
70.9919,2989.5965
71.0139,2688.5582
71.0359,2707.0314
71.0579,2930.636
71.0799,3177.2901
71.1019,3182.3887
71.1239,2907.5211
71.1459,2346.2225
71.1679,1789.9634
71.1899,1460.6506
71.2119,1319.8569
71.2339,1293.0531
71.2559,1275.1901
71.2779,1177.6719
71.2999,1205.1908
71.3219,1172.0507
71.3439,1148.7625
71.3659,1088.8668
71.3879,1088.4898
71.4099,1106.5232
71.4319,1044.8108
71.4539,1085.317
71.4759,1036.7125
71.4979,1040.4691
71.5199,1082.8311
71.5419,1069.4453
71.5639,1069.4749
71.5859,1004.8039
71.6079,1028.1595
71.6299,1020.2271
71.6519,1013.4926
71.6739,1078.1135
71.6959,1093.3673
71.7179,1097.8191
71.7399,1013.8653
71.7619,1086.4105
71.7839,1039.4093
71.8059,1068.9449
71.8279,1055.0487
71.8499,1058.057
71.8719,1061.2652
71.8939,1087.5483
71.9159,1028.2234
71.9379,1058.757
71.9599,1041.7506
71.9819,1023.8066
72.0039,1060.5012
72.0259,1010.8964
72.0479,973.9661
72.0699,1052.5429
72.0919,1072.9246
72.1139,1045.4159
72.1359,1047.0386
72.1579,1077.7756
72.1799,1040.9552
72.2019,1033.656
72.2239,1076.3853
72.2459,1119.7589
72.2679,1077.8493
72.2899,1056.9296
72.3119,1119.0386
72.3339,1144.2172
72.3559,1125.2196
72.3779,1108.647
72.3999,1115.3728
72.4219,1102.33
72.4439,1062.3246
72.4659,1066.646
72.4879,1096.0315
72.5099,1132.1374
72.5319,1097.0855
72.5539,1094.6402
72.5759,1129.6523
72.5979,1140.6614
72.6199,1082.7711
72.6419,1048.29
72.6639,1088.4292
72.6859,1133.5309
72.7079,1122.3819
72.7299,1078.0684
72.7519,1071.6876
72.7739,1121.0583
72.7959,1168.1807
72.8179,1160.5336
72.8399,1175.642
72.8619,1226.9442
72.8839,1242.1814
72.9059,1200.7981
72.9279,1252.9555
72.9499,1281.2801
72.9719,1283.7966
72.9939,1333.3976
73.0159,1346.1607
73.0379,1342.6922
73.0599,1333.1366
73.0819,1298.8936
73.1039,1287
73.1259,1329.2599
73.1479,1282.9509
73.1699,1259.1701
73.1919,1291.4658
73.2139,1304.1623
73.2359,1265.66
73.2579,1200.5699
73.2799,1240.1287
73.3019,1216.5711
73.3239,1212.5561
73.3459,1229.4219
73.3679,1206.5785
73.3899,1183.4443
73.4119,1249.4901
73.4339,1249.6922
73.4559,1227.7073
73.4779,1278.5313
73.4999,1267.7448
73.5219,1191.914
73.5439,1310.8665
73.5659,1256.7411
73.5879,1303.9767
73.6099,1297.1653
73.6319,1311.7229
73.6539,1338.744
73.6759,1279.7302
73.6979,1296.5607
73.7199,1339.5898
73.7419,1383.2034
73.7639,1369.0878
73.7859,1410.2731
73.8079,1369.754
73.8299,1401.031
73.8519,1334.5009
73.8739,1316.3362
73.8959,1301.2897
73.9179,1321.0806
73.9399,1328.3779
73.9619,1356.2384
73.9839,1281.6887
74.0059,1275.8261
74.0279,1249.1223
74.0499,1157.9795
74.0719,1292.0131
74.0939,1252.3006
74.1159,1229.424
74.1379,1236.0469
74.1599,1203.5099
74.1819,1203.3784
74.2039,1173.2225
74.2259,1175.2561
74.2479,1231.1047
74.2699,1214.7342
74.2919,1164.1801
74.3139,1142.5331
74.3359,1144.2255
74.3579,1157.6573
74.3799,1158.5688
74.4019,1074.1087
74.4239,1062.195
74.4459,1103.9294
74.4679,1102.283
74.4899,1102.1103
74.5119,1113.3584
74.5339,1081.5425
74.5559,1091.5805
74.5779,1091.7116
74.5999,1055.0072
74.6219,1054.2351
74.6439,1050.9788
74.6659,1024.1414
74.6879,1026.9657
74.7099,1065.1861
74.7319,1079.4454
74.7539,1066.2831
74.7759,1063.9794
74.7979,1054.5161
74.8199,1112.9666
74.8419,1105.5946
74.8639,1065.0662
74.8859,1068.769
74.9079,1107.164
74.9299,1114.5044
74.9519,1106.9075
74.9739,1116.6078
74.9959,1077.5484
75.0179,1061.2094
75.0399,1060.8107
75.0619,1023.1413
75.0839,1075.142
75.1059,1082.762
75.1279,1023.5276
75.1499,1048.015
75.1719,1017.6212
75.1939,1055.1478
75.2159,1101.8164
75.2379,1097.7079
75.2599,987.7648
75.2819,1049.0525
75.3039,1039.585
75.3259,1125.3752
75.3479,1125.0516
75.3699,1052.3585
75.3919,1066.3321
75.4139,1111.4524
75.4359,1133.3927
75.4579,1116.1506
75.4799,1143.8838
75.5019,1195.6483
75.5239,1241.5927
75.5459,1198.8896
75.5679,1157.0972
75.5899,1145.838
75.6119,1193.4656
75.6339,1295.5222
75.6559,1476.5674
75.6779,1625.6627
75.6999,1603.7463
75.7219,1514.2501
75.7439,1425.0829
75.7659,1410.8695
75.7879,1418.3091
75.8099,1337.65
75.8319,1388.5379
75.8539,1534.1774
75.8759,1628.3342
75.8979,1741.0534
75.9199,1806.865
75.9419,1889.7199
75.9639,1929.0984
75.9859,1970.6811
76.0079,1845.7114
76.0299,1622.4248
76.0519,1457.9415
76.0739,1369.3709
76.0959,1392
76.1179,1449.8179
76.1399,1526.8967
76.1619,1557.6308
76.1839,1570.4612
76.2059,1493.7252
76.2279,1412.7748
76.2499,1345.5573
76.2719,1287.0723
76.2939,1195.2894
76.3159,1172.8455
76.3379,1174.277
76.3599,1120.7533
76.3819,1076.5042
76.4039,1082.0469
76.4259,1135.614
76.4479,1147.4689
76.4699,1070.549
76.4919,1060.9625
76.5139,1027.0909
76.5359,997.293
76.5579,988.1179
76.5799,977.6312
76.6019,993.4515
76.6239,961.6506
76.6459,955.3275
76.6679,929.0287
76.6899,976.3368
76.7119,958.5233
76.7339,945
76.7559,958.8497
76.7779,949.7108
76.7999,1011.1087
76.8219,956.2394
76.8439,949.6417
76.8659,1007.669
76.8879,999.607
76.9099,978.8907
76.9319,987.2808
76.9539,1001.3206
76.9759,988.7226
76.9979,962.5751
77.0199,943.4955
77.0419,1020.9828
77.0639,999.6965
77.0859,933.1422
77.1079,931.9322
77.1299,946.6756
77.1519,976.7199
77.1739,929.0828
77.1959,957.2744
77.2179,974.8348
77.2399,969
77.2619,970.303
77.2839,991.1015
77.3059,952.3749
77.3279,992.1991
77.3499,993.2169
77.3719,1071.4792
77.3939,1056.7125
77.4159,1147.0724
77.4379,1162.1063
77.4599,1176.9293
77.4819,1189.1995
77.5039,1163.6368
77.5259,1107.8043
77.5479,1091.1596
77.5699,1048.3241
77.5919,994.6149
77.6139,996.8875
77.6359,1072.5267
77.6579,1083.8927
77.6799,1078.4256
77.7019,1106.0412
77.7239,1072.7656
77.7459,1003.2306
77.7679,960.3926
77.7899,976.2397
77.8119,949.8903
77.8339,937.8849
77.8559,927.5525
77.8779,940.1538
77.8999,952.2179
77.9219,912
77.9439,931.9246
77.9659,954.4365
77.9879,946.3382
78.0099,940.1199
78.0319,960.1861
78.0539,982.5162
78.0759,993.1653
78.0979,1013.8261
78.1199,1074.0842
78.1419,1140.1192
78.1639,1194.2556
78.1859,1218.8849
78.2079,1166.2266
78.2299,1079.4154
78.2519,1006.4765
78.2739,1015.3455
78.2959,999.4716
78.3179,1041.567
78.3399,1063.9124
78.3619,1085.0003
78.3839,1107.8265
78.4059,1073.981
78.4279,1054.1858
78.4499,989.2905
78.4719,982.2032
78.4939,956.4216
78.5159,944.2473
78.5379,955.475
78.5599,963.6638
78.5819,998.9521
78.6039,991.1606
78.6259,1002.4691
78.6479,1045.6699
78.6699,1095.9374
78.6919,1135.4884
78.7139,1069.3436
78.7359,1098.2786
78.7579,1127.9736
78.7799,1096.7923
78.8019,1086.6125
78.8239,1063.8052
78.8459,1047.0068
78.8679,1084.924
78.8899,1111.0415
78.9119,1040.9017
78.9339,1069.5734
78.9559,1072.9956
78.9779,1045.8485
78.9999,1031.6071
79.0219,1013.9379
79.0439,983.6168
79.0659,954.0204
79.0879,926.6139
79.1099,967.6722
79.1319,907.1911
79.1539,882.8556
79.1759,902.4933
79.1979,930.0519
79.2199,905.5932
79.2419,947.6253
79.2639,932.2703
79.2859,914.7934
79.3079,907.1257
79.3299,955.0748
79.3519,948.2754
79.3739,905.0504
79.3959,935.7331
79.4179,924.6545
79.4399,918.81
79.4619,983.8146
79.4839,923.4676
79.5059,921.1897
79.5279,911.8172
79.5499,912.7314
76.5139,816.0235
76.5359,806.1814
76.5579,816.8349
76.5799,790.4451
76.6019,746.6645
76.6239,804.2636
76.6459,849.1594
76.6679,800.2601
76.6899,762.1513
76.7119,771.6417
76.7339,775.4857
76.7559,796.5439
76.7779,816.2892
76.7999,754.8913
