Angle,Counts
3.7819,17174
3.8039,17133.9641
3.8259,16883.9282
3.8479,16627.1814
3.8699,16218.4739
3.8919,16268.9258
3.9139,15709.6667
3.9359,15578.7586
3.9579,15264.7984
3.9799,14906.3805
4.0019,14602.6696
4.0239,14425.5954
4.0459,14090.1947
4.0679,14059.2104
4.0899,13700.7729
4.1119,13630.233
4.1339,13441.9115
4.1559,13264.8825
4.1779,12995.6195
4.1999,12724.6293
4.2219,12465.1848
4.2439,12137.1652
4.2659,12113.9046
4.2879,11831.5919
4.3099,11618.1386
4.3319,11441.2345
4.3539,11335.6145
4.3759,11145.9027
4.3979,11064.3854
4.4199,10803.97
4.4419,10701.472
4.4639,10547.1824
4.4859,10447.2881
4.5079,10325.1239
4.5299,10135.7787
4.5519,10002.1775
4.5739,9798.0708
4.5959,9601.2788
4.6179,9495.4985
4.6399,9267.4026
4.6619,9071.1632
4.6839,8926.1578
4.7059,8810.2124
4.7279,8699.7188
4.7499,8598.7257
4.7719,8484.1593
4.7939,8429.3461
4.8159,8312.3525
4.8379,8099.6165
4.8599,7995.148
4.8819,7970.0216
4.9039,7892.3009
4.9259,7856.4739
4.9479,7787.3432
4.9699,7654.7522
4.9919,7467.7424
5.0139,7345.9361
5.0359,7243.9351
5.0579,7157.5339
5.0799,7184.5865
5.1019,7081.3186
5.1239,7057.4936
5.1459,6937.5005
5.1679,6839.9248
5.1899,6721.5251
5.2119,6622.8963
5.2339,6633.3923
5.2559,6472.0059
5.2779,6354.9282
5.2999,6341.5442
5.3219,6307.585
5.3439,6285.4194
5.3659,6128.1327
5.3879,6198.6219
5.4099,5981.6155
5.4319,5983.8894
5.4539,6085.9509
5.4759,6023.912
5.4979,5921.2537
5.5199,5762.6121
5.5419,5855.3451
5.5639,5754.4557
5.5859,5689.7414
5.6079,5530.0929
5.6299,5490.9971
5.6519,5639.4184
5.6739,5620.8977
5.6959,5511.0575
5.7179,5395.1623
5.7399,5439.8402
5.7619,5418.8938
5.7839,5415.8673
5.8059,5374.4985
5.8279,5215.0148
5.8499,5279.9715
5.8719,5281.5172
5.8939,5147.0826
5.9159,5126.5708
5.9379,5172.7748
5.9599,5125.5354
5.9819,5212.3992
6.0039,5146.1018
6.0259,5045.1239
6.0479,5004.9071
6.0699,5075.6165
6.0919,5014.7847
6.1139,5046.6057
6.1359,5011.1283
6.1579,4952.6106
6.1799,5001.0767
6.2019,5005.1278
6.2239,4977.9631
6.2459,4869.94
6.2679,4826.3889
6.2899,4936.767
6.3119,4899.3264
6.3339,4844.4543
6.3559,4754.8053
6.3779,4751.1013
6.3999,4845.9538
6.4219,4805.9085
6.4439,4768.3864
6.4659,4830.4631
6.4879,4794.3009
6.5099,4737.1023
6.5319,4701.262
6.5539,4746.1416
6.5759,4750.8063
6.5979,4682.9489
6.6199,4634.6962
6.6419,4615.5762
6.6639,4619.3899
6.6859,4627.0914
6.7079,4597.7257
6.7299,4630.4071
6.7519,4640.5398
6.7739,4564.5132
6.7959,4577.8196
6.8179,4582.9882
6.8399,4632.6765
6.8619,4545.0049
6.8839,4555.5118
6.9059,4495.9951
6.9279,4368.2364
6.9499,4536.1771
6.9719,4496.6602
6.9939,4538.121
7.0159,4429.3348
7.0379,4322.0069
7.0599,4493.7203
7.0819,4424.8554
7.1039,4476.8997
7.1259,4484.6588
7.1479,4458.4646
7.1699,4479.1062
7.1919,4471.1386
7.2139,4406.6991
7.2359,4464.2193
7.2579,4484.0718
7.2799,4324.6814
7.3019,4380.7935
7.3239,4394.7463
7.3459,4370.2212
7.3679,4289.5319
7.3899,4153.5752
7.4119,4131.6239
7.4339,4288.1298
7.4559,4190.8972
7.4779,4110.1623
7.4999,4278.796
7.5219,4345.8721
7.5439,4086.9204
7.5659,4138.761
7.5879,4083.0467
7.6099,4173.0648
7.6319,4064.8855
7.6539,4168.2497
7.6759,4072.441
7.6979,4106.0757
7.7199,4153.6062
7.7419,4187.2212
7.7639,4100.9592
7.7859,4017.2891
7.8079,4043.1667
7.8299,4126.9538
7.8519,4127.0123
7.8739,4123.2684
7.8959,4070.4243
7.9179,4051.6647
7.9399,4097.146
7.9619,4020.6588
7.9839,3970.7276
8.0059,3935.9824
8.0279,3997.76
8.0499,3928.4661
8.0719,3917.9351
8.0939,4013.8545
8.1159,4155.2242
8.1379,4054.2123
8.1599,3937.7267
8.1819,3985.5044
8.2039,3969.764
8.2259,3989.4494
8.2479,3959.9572
8.2699,3947.5015
8.2919,3984.6377
8.3139,3982.6804
8.3359,4022.0841
8.3579,3998.8938
8.3799,3932.7974
8.4019,3899.2419
8.4239,3934.8466
8.4459,3969.6057
8.4679,3872.3569
8.4899,3813.2606
8.5119,3862.8358
8.5339,3918.1593
8.5559,3861.614
8.5779,3891.2272
8.5999,3829.3067
8.6219,3857.6992
8.6439,3853.3328
8.6659,3859.6726
8.6879,3775.8687
8.7099,3762.0767
8.7319,3873.6372
8.7539,3892.7778
8.7759,3836.0654
8.7979,3773.056
8.8199,3842.4651
8.8419,3898.2124
8.8639,3866.556
8.8859,3784.9174
8.9079,3722.7625
8.9299,3866.5664
8.9519,3844.4685
8.9739,3883.1337
8.9959,3798.528
9.0179,3805.7296
9.0399,3840.7522
9.0619,3768.9115
9.0839,3783.2807
9.1059,3822.003
9.1279,3712.4867
9.1499,3778.9332
9.1719,3624.0807
9.1939,3805.4572
9.2159,3780.9184
9.2379,3727.8427
9.2599,3780.7345
9.2819,3728.9813
9.3039,3721.5285
9.3259,3773.6991
9.3479,3706.5482
9.3699,3709.0492
9.3919,3697.8186
9.4139,3695.6351
9.4359,3600.6613
9.4579,3717.6165
9.4799,3671.6819
9.5019,3646.826
9.5239,3667.9956
9.5459,3747.1769
9.5679,3669.5585
9.5899,3640.1032
9.6119,3632.971
9.6339,3630.9439
9.6559,3607.7921
9.6779,3722
9.6999,3708.2168
9.7219,3678.5929
9.7439,3679.6839
9.7659,3618.7207
9.7879,3556.1431
9.8099,3635.058
9.8319,3614.4184
9.8539,3581.5457
9.8759,3532.7748
9.8979,3545.9568
9.9199,3599.3672
9.9419,3544.4415
9.9639,3589.471
9.9859,3623.4248
10.0079,3614.3943
10.0299,3607.411
10.0519,3569.9115
10.0739,3600.8565
10.0959,3603.9075
10.1179,3630.6195
10.1399,3644.2477
10.1619,3613.1288
10.1839,3643.9882
10.2059,3659.5211
10.2279,3634.5565
10.2499,3651.6785
10.2719,3671
10.2939,3653.7699
10.3159,3649.2035
10.3379,3587.7148
10.3599,3602.2518
10.3819,3572.764
10.4039,3497.9287
10.4259,3534.3757
10.4479,3581.1741
10.4699,3579.6893
10.4919,3493.6351
10.5139,3432.5132
10.5359,3587.4977
10.5579,3471.8003
10.5799,3384.7094
10.6019,3401.5477
10.6239,3339.731
10.6459,3350.0443
10.6679,3372.7891
10.6899,3389.7503
10.7119,3385.8982
10.7339,3301.0226
10.7559,3373.3526
10.7779,3391.177
10.7999,3403.971
10.8219,3505.7788
10.8439,3445.8746
10.8659,3407.5221
10.8879,3278.9286
10.9099,3506.8231
10.9319,3461.2704
10.9539,3485.6283
10.9759,3429.5265
10.9979,3306.0522
11.0199,3397.9434
11.0419,3360.7906
11.0639,3483.3893
11.0859,3360.5978
11.1079,3299.6504
11.1299,3302.9489
11.1519,3291.8054
11.1739,3394.823
11.1959,3342.1313
11.2179,3350.8318
11.2399,3331.6667
11.2619,3357.8742
11.2839,3372.7713
11.3059,3288.2921
11.3279,3335.3314
11.3499,3403.8534
11.3719,3312.2404
11.3939,3302.6391
11.4159,3280.4799
11.4379,3280.9852
11.4599,3216.9459
11.4819,3212.1318
11.5039,3213.6327
11.5259,3195.8968
11.5479,3208.3712
11.5699,3216.1593
11.5919,3230.3565
11.6139,3273.5468
11.6359,3283.3731
11.6579,3212.7945
11.6799,3147.7389
11.7019,3165.2302
11.7239,3250.5309
11.7459,3188.4306
11.7679,3181.8511
11.7899,3219.2183
11.8119,3218.9543
11.8339,3165.1091
11.8559,3119.8269
11.8779,3185.2351
11.8999,3190.9645
11.9219,3107.3294
11.9439,3099.9194
11.9659,3160.354
11.9879,3166.941
12.0099,3111.1887
12.0319,3170.4529
12.0539,3240.7788
12.0759,3226.9184
12.0979,3088.9645
12.1199,3169.1196
12.1419,3242.647
12.1639,3182.9542
12.1859,3180.3314
12.2079,3100.4434
12.2299,3210.5518
12.2519,3186.7418
12.2739,3179.3304
12.2959,3081.8273
12.3179,3041.8486
12.3399,3107.9661
12.3619,3155.5664
12.3839,3030.0427
12.4059,3010.2714
12.4279,3150.0134
12.4499,3114.7994
12.4719,3035.4577
12.4939,3103.7877
12.5159,3052.6725
12.5379,2995.8407
12.5599,3080.4131
12.5819,3156.8988
12.6039,3065.4852
12.6259,3055.177
12.6479,3108.3845
12.6699,3066.5831
12.6919,3131.4956
12.7139,3071.6096
12.7359,3088.9951
12.7579,3086.351
12.7799,3043.2975
12.8019,3051.2074
12.8239,2987.3363
12.8459,3058.9468
12.8679,2945.1913
12.8899,3005.4691
12.9119,3097.9606
12.9339,3050.7384
12.9559,3015.9497
12.9779,2903.6077
12.9999,2961.1948
13.0219,3042.4542
13.0439,2970.5466
13.0659,2894.1652
13.0879,2918.4115
13.1099,2934.2145
13.1319,3031.5526
13.1539,3040.8555
13.1759,3043.9719
13.1979,2918.3372
13.2199,2851.1888
13.2419,2904.3983
13.2639,2923.3687
13.2859,2885.9823
13.3079,2930.152
13.3299,3010.0856
13.3519,2994.1724
13.3739,2858.9479
13.3959,2929.1024
13.4179,2970.4246
13.4399,2917.242
13.4619,2957.4178
13.4839,2891.5929
13.5059,2879.1347
13.5279,2905.5861
13.5499,2915.3097
13.5719,2866.2802
13.5939,2883.5084
13.6159,2921.059
13.6379,2937.7749
13.6599,2910.7625
13.6819,2830.4247
13.7039,2764.7743
13.7259,2770.4445
13.7479,2823.5531
13.7699,2864.4651
13.7919,2871.1136
13.8139,2800.8996
13.8359,2865.126
13.8579,2920.3019
13.8799,2876.7876
13.9019,2831.8063
13.9239,2797.6824
13.9459,2822.9587
13.9679,2803.3898
13.9899,2823.5585
14.0119,2887.6431
14.0339,2897.5408
14.0559,2915.4577
14.0779,2891.407
14.0999,2995.6756
14.1219,3001.4818
14.1439,2961.4365
14.1659,2942.5821
14.1879,2908.2669
14.2099,2941.472
14.2319,2994.4273
14.2539,2965.5762
14.2759,2887.3849
14.2979,3060.6511
14.3199,3115.3973
14.3419,2962.4512
14.3639,3001.5438
14.3859,2976.4985
14.4079,3018.0192
14.4299,2949.8347
14.4519,2927.7379
14.4739,2924.0796
14.4959,2942.7291
14.5179,2823.2359
14.5399,2883.2049
14.5619,2808.0404
14.5839,2851.7782
14.6059,2814.0353
14.6279,2730.8471
14.6499,2684.1583
14.6719,2722.4778
14.6939,2692.9764
14.7159,2673.1308
14.7379,2669.3865
14.7599,2688.6706
14.7819,2650.7984
14.8039,2635.3142
14.8259,2645.175
14.8479,2607
14.8699,2606.8053
14.8919,2596.8928
14.9139,2578.2262
14.9359,2649.1992
14.9579,2688.3667
14.9799,2656.3259
15.0019,2616.0059
15.0239,2602.2063
15.0459,2519.0089
15.0679,2621.6682
15.0899,2715.0561
15.1119,2711.7944
15.1339,2611.7345
15.1559,2630.2833
15.1779,2667.7246
15.1999,2574.0943
15.2219,2586.7475
15.2439,2672.7271
15.2659,2624.6726
15.2879,2556.195
15.3099,2533.9933
15.3319,2542.0043
15.3539,2477.3245
15.3759,2549.3064
15.3979,2592.1652
15.4199,2547.8583
15.4419,2506.3432
15.4639,2516.2699
15.4859,2565.0246
15.5079,2544.847
15.5299,2500.6195
15.5519,2480.1529
15.5739,2487.5802
15.5959,2544.0207
15.6179,2475.8238
15.6399,2448.7434
15.6619,2507.2301
15.6839,2485.4862
15.7059,2442.8092
15.7279,2511.8629
15.7499,2560.9813
15.7719,2577.178
15.7939,2600.4838
15.8159,2632.589
15.8379,2617.7286
15.8599,2597.0354
15.8819,2595.2802
15.9039,2575.9184
15.9259,2542.5368
15.9479,2515.0762
15.9699,2444.4512
15.9919,2390.3879
16.0139,2366.1573
16.0359,2509.3782
16.0579,2526.5575
16.0799,2585.9489
16.1019,2742.4594
16.1239,2652.7757
16.1459,2585.5457
16.1679,2668.3069
16.1899,2580.9202
16.2119,2450.2776
16.2339,2373.1582
16.2559,2388.4115
16.2779,2352.6912
16.2999,2331.1342
16.3219,2240.3776
16.3439,2306.0375
16.3659,2413.7443
16.3879,2338.0648
16.4099,2252.1475
16.4319,2296.3418
16.4539,2396.4867
16.4759,2373.8515
16.4979,2328.5241
16.5199,2384.2729
16.5419,2448.0305
16.5639,2446.1106
16.5859,2390.9262
16.6079,2371.2482
16.6299,2315.3482
16.6519,2360.2565
16.6739,2295.887
16.6959,2315.4803
16.7179,2283.4572
16.7399,2254.113
16.7619,2225.355
16.7839,2279.4484
16.8059,2278.409
16.8279,2251.5173
16.8499,2320.8318
16.8719,2277.3348
16.8939,2278.1936
16.9159,2259.3452
16.9379,2274.9448
16.9599,2189.1583
16.9819,2187.8438
17.0039,2241
17.0259,2254.5733
17.0479,2236.3185
17.0699,2237.3649
17.0919,2285.2182
17.1139,2254.7257
17.1359,2295.2469
17.1579,2280.0284
17.1799,2239.4396
17.2019,2241.586
17.2239,2240.8245
17.2459,2217.3185
17.2679,2250.4741
17.2899,2287.4916
17.3119,2300.9809
17.3339,2292.7226
17.3559,2268.1672
17.3779,2227.8849
17.3999,2211.5551
17.4219,2133.3774
17.4439,2136.0488
17.4659,2226.0532
17.4879,2271.1465
17.5099,2250.5457
17.5319,2224.7256
17.5539,2146.8032
17.5759,2163.0414
17.5979,2151.3736
17.6199,2125.1096
17.6419,2148.2478
17.6639,2188.2262
17.6859,2166.5142
17.7079,2218.6387
17.7299,2273.2488
17.7519,2169.5205
17.7739,2175.5015
17.7959,2201.2468
17.8179,2159.5486
17.8399,2155.2699
17.8619,2168.9941
17.8839,2094.5648
17.9059,2129.4337
17.9279,2226.2179
17.9499,2139.8789
17.9719,2220.9898
17.9939,2103.9172
18.0159,2036.0044
18.0379,2097.6284
18.0599,2072.647
18.0819,2043.3136
18.1039,2121.9498
18.1259,2089.1564
18.1479,2172.5212
18.1699,2186.0175
18.1919,2038.2282
18.2139,2079.7483
18.2359,2074.8717
18.2579,2059.2497
18.2799,2039.4031
18.3019,2035.9854
18.3239,2127.6023
18.3459,2154.6696
18.3679,2109.6784
18.3899,2046.9351
18.4119,2069.8428
18.4339,2129.6991
18.4559,2108.3475
18.4779,2055.3108
18.4999,2114.0444
18.5219,2168.0196
18.5439,2097.9473
18.5659,2059.8732
18.5879,2111.2626
18.6099,2098.1189
18.6319,2052.1903
18.6539,2065.6637
18.6759,2049.8894
18.6979,2028.9999
18.7199,1990.8988
18.7419,2048.9175
18.7639,2093.4469
18.7859,2061.8151
18.8079,2067.4529
18.8299,2105.761
18.8519,2053.9026
18.8739,2050.2665
18.8959,2044.5869
18.9179,2012.65
18.9399,2003.881
18.9619,2039.9677
18.9839,2046.1813
19.0059,1986.3972
19.0279,2019.4514
19.0499,2016.0707
19.0719,1998.6067
19.0939,1996.0354
19.1159,2014.0119
19.1379,2047.529
19.1599,2047.677
19.1819,1993.8898
19.2039,1952.3756
19.2259,1971.5045
19.2479,1914.8922
19.2699,1931.8025
19.2919,2023.1978
19.3139,2025.5457
19.3359,2012
19.3579,1922.1355
19.3799,1956.8644
19.4019,2008.5261
19.4239,2017
19.4459,2000.4729
19.4679,2032.4126
19.4899,2052.5339
19.5119,1994.316
19.5339,2046.8339
19.5559,1962.4143
19.5779,1920.8505
19.5999,1917
19.6219,1926.3451
19.6439,1877.1509
19.6659,1921.4485
19.6879,1957.3658
19.7099,1936.7345
19.7319,1934
19.7539,1937.6932
19.7759,1991.329
19.7979,1894.524
19.8199,1859.2345
19.8419,2031.0995
19.8639,1987.7467
19.8859,1988.9941
19.9079,1917.645
19.9299,1881.7091
19.9519,1957.4395
19.9739,1913.3235
19.9959,1920.7606
20.0179,1934.5576
20.0399,1954.6676
20.0619,1946.231
20.0839,1900.031
20.1059,1891.1603
20.1279,1887.3806
20.1499,1913.1181
20.1719,1959.5122
20.1939,1904.0817
20.2159,1980.0176
20.2379,1944
20.2599,1948.326
20.2819,1946.8819
20.3039,1904.1358
20.3259,1972.8997
20.3479,1918.7255
20.3699,1833.2106
20.3919,1898.0064
20.4139,1902.1948
20.4359,1942.0009
20.4579,1895.7522
20.4799,1890.655
20.5019,1951.53
20.5239,1945.73
20.5459,1932.0679
20.5679,1951.4006
20.5899,1923.9568
20.6119,1946.7655
20.6339,1963.4819
20.6559,1975.3564
20.6779,1953.7906
20.6999,1971.7773
20.7219,1945.6557
20.7439,1911.7168
20.7659,1901.3844
20.7879,1917.566
20.8099,1947.4071
20.8319,1874.0996
20.8539,1875.0051
20.8759,1924.4985
20.8979,1880.0668
20.9199,1847.8505
20.9419,1938.5754
20.9639,1955.6543
20.9859,1931.9509
21.0079,1894.5751
21.0299,1894.4475
21.0519,1864.2551
21.0739,1882.9499
21.0959,1892.2119
21.1179,1918.2115
21.1399,1893.9321
21.1619,1931.6648
21.1839,2004.5557
21.2059,1925.575
21.2279,1922.8595
21.2499,1954.4956
21.2719,1904.6887
21.2939,2017.307
21.3159,1947.136
21.3379,1839.9822
21.3599,1965.4172
21.3819,1897.8917
21.4039,1917.7213
21.4259,1876.9842
21.4479,1891.6126
21.4699,1861.4837
21.4919,1892.7719
21.5139,1883.4012
21.5359,1820.435
21.5579,1857.8339
21.5799,1872.3216
21.6019,1844.3274
21.6239,1917.5394
21.6459,1811.1827
21.6679,1851.683
21.6899,1796.4229
21.7119,1881.5698
21.7339,1854.758
21.7559,1782.2537
21.7779,1811.1082
21.7999,1814.4602
21.8219,1836.6519
21.8439,1858.001
21.8659,1873.8701
21.8879,1847.4741
21.9099,1924.8575
21.9319,1974.6742
21.9539,2083.2488
21.9759,2113.2237
21.9979,2058.5573
22.0199,1923.6249
22.0419,1921.7638
22.0639,1801.1445
22.0859,1821.5203
22.1079,1886.2624
22.1299,1829.23
22.1519,1822.9406
22.1739,1841.6262
22.1959,1774.1946
22.2179,1760.9932
22.2399,1806.2537
22.2619,1822.3364
22.2839,1842.3534
22.3059,1783.3963
22.3279,1774.7979
22.3499,1755
22.3719,1783.1737
22.3939,1821.6283
22.4159,1774.2319
22.4379,1719.5772
22.4599,1738.1446
22.4819,1809.5292
22.5039,1832.0638
22.5259,1792.4159
22.5479,1767.8495
22.5699,1800.5803
22.5919,1821.2919
22.6139,1777.3097
22.6359,1761.7979
22.6579,1728.5339
22.6799,1697.8397
22.7019,1752.8743
22.7239,1814.3997
22.7459,1853.1495
22.7679,1834.1405
22.7899,1752.6282
22.8119,1763.4868
22.8339,1773.2546
22.8559,1838.8232
22.8779,1795.0893
22.8999,1751.2763
22.9219,1812.3895
22.9439,1792.0255
22.9659,1786.356
22.9879,1789.8097
23.0099,1808.3019
23.0319,1791.6052
23.0539,1821.5812
23.0759,1881.3138
23.0979,1850.6735
23.1199,1857.4882
23.1419,1911.7838
23.1639,1884.8927
23.1859,1861.8672
23.2079,1916.151
23.2299,1851.5849
23.2519,1862.8172
23.2739,1840.1937
23.2959,1912.7818
23.3179,1887.1651
23.3399,1948.8723
23.3619,1870.4256
23.3839,1893.5399
23.4059,1838.1464
23.4279,1821.3613
23.4499,1834.8348
23.4719,1788.036
23.4939,1861.8054
23.5159,1920.0882
23.5379,1774.4644
23.5599,1936.5805
23.5819,1852
23.6039,1855.8605
23.6259,1907.8939
23.6479,1956.7081
23.6699,2027.3333
23.6919,2035.183
23.7139,2068.6076
23.7359,2049.6637
23.7579,2066.9233
23.7799,2078.208
23.8019,2096.3856
23.8239,2132.665
23.8459,2103.8676
23.8679,2275.8913
23.8899,2259.3627
23.9119,2213.0737
23.9339,2210.4131
23.9559,2266.0463
23.9779,2339.5399
23.9999,2454.5962
24.0219,2702.4076
24.0439,2996.3367
24.0659,3355.8258
24.0879,3904.6839
24.1099,4584.6857
24.1319,5587.1924
24.1539,7142.5746
24.1759,9425.0621
24.1979,12781.7081
24.2199,17988.8762
24.2419,25856.8478
24.2639,35100.7619
24.2859,39817.8108
24.3079,35669.8734
24.3299,26986.6974
24.3519,18292.5096
24.3739,10653.2191
24.3959,5717.048
24.4179,3558.541
24.4399,2904.3166
24.4619,2776.1967
24.4839,2633.1731
24.5059,2516.6873
24.5279,2448.2776
24.5499,2418.8771
24.5719,2356.8095
24.5939,2285.2792
24.6159,2163.1821
24.6379,2148.6343
24.6599,2133.1474
24.6819,2028.4373
24.7039,2004.531
24.7259,1972.0382
24.7479,1898.6434
24.7699,1817.9468
24.7919,1838.0635
24.8139,1819.2389
24.8359,1890.3542
24.8579,1890.4306
24.8799,1800.3523
24.9019,1776.4012
24.9239,1846.6181
24.9459,1874.5359
24.9679,1766.6104
24.9899,1783.1859
25.0119,1842.5129
25.0339,1802.9763
25.0559,1803.969
25.0779,1801.409
25.0999,1827.3909
25.1219,1835.5339
25.1439,1756.5579
25.1659,1786.0355
25.1879,1792.796
25.2099,1740.5397
25.2319,1755.7242
25.2539,1786.8781
25.2759,1660.3762
25.2979,1704.7315
25.3199,1693.4494
25.3419,1734.5525
25.3639,1707.4514
25.3859,1757.0185
25.4079,1665.0674
25.4299,1683.891
25.4519,1745.199
25.4739,1707.6175
25.4959,1735.0075
25.5179,1795.4652
25.5399,1839.0649
25.5619,1836.6903
25.5839,1861.7282
25.6059,1912.4946
25.6279,1908.1505
25.6499,1918.5269
25.6719,1855.3057
25.6939,1794.1474
25.7159,1756.2375
25.7379,1775.8507
25.7599,1795.8581
25.7819,1699.2763
25.8039,1712.7532
25.8259,1737.72
25.8479,1789.3892
25.8699,1741
25.8919,1753.6903
25.9139,1751.8288
25.9359,1714.4106
25.9579,1739.4071
25.9799,1758.3849
26.0019,1726.0923
26.0239,1706.7552
26.0459,1745.5949
26.0679,1692.6693
26.0899,1664.8911
26.1119,1682.0809
26.1339,1653.3364
26.1559,1677.5
26.1779,1696.0286
26.1999,1735.3604
26.2219,1720.3244
26.2439,1717.1633
26.2659,1734.1927
26.2879,1717.0825
26.3099,1718.3068
26.3319,1721.0167
26.3539,1682.8052
26.3759,1652.2792
26.3979,1685.7474
26.4199,1673.6828
26.4419,1647.7424
26.4639,1590.2339
26.4859,1607.1152
26.5079,1730.8021
26.5299,1709.3587
26.5519,1671.9026
26.5739,1666.5329
26.5959,1632.438
26.6179,1667.245
26.6399,1678.9184
26.6619,1685.827
26.6839,1614.8612
26.7059,1704.9826
26.7279,1717.0673
26.7499,1763.0798
26.7719,1686.8966
26.7939,1744.654
26.8159,1761.3437
26.8379,1752.3087
26.8599,1817.1054
26.8819,1777.9085
26.9039,1725.2693
26.9259,1774.9509
26.9479,1811.0443
26.9699,1817.7739
26.9919,1761.9104
27.0139,1824.6373
27.0359,1932.1059
27.0579,1813.7442
27.0799,1749.4219
27.1019,1773.2034
27.1239,1710.6941
27.1459,1679.8938
27.1679,1670.5455
27.1899,1571.069
27.2119,1643.5735
27.2339,1541.0897
27.2559,1650.2723
27.2779,1611.2007
27.2999,1650.8958
27.3219,1670.9115
27.3439,1646.854
27.3659,1668.6335
27.3879,1782.7476
27.4099,1714.9941
27.4319,1708.0644
27.4539,1699.1651
27.4759,1670.4352
27.4979,1716.7532
27.5199,1678.961
27.5419,1616.4603
27.5639,1657.707
27.5859,1654.0924
27.6079,1635.0367
27.6299,1586.529
27.6519,1607.0812
27.6739,1664.1565
27.6959,1715.585
27.7179,1674.348
27.7399,1635.2964
27.7619,1609.8358
27.7839,1653.602
27.8059,1672.7402
27.8279,1667.7619
27.8499,1745.7148
27.8719,1715.1563
27.8939,1690.1091
27.9159,1745.6935
27.9379,1937.4253
27.9599,2052.8898
27.9819,2108.4191
28.0039,2315.6186
28.0259,2670.344
28.0479,3015.1972
28.0699,3033.9672
28.0919,2773.8627
28.1139,2315.9763
28.1359,1986.128
28.1579,1825.2268
28.1799,1765.4769
28.2019,1778.1475
28.2239,1801.7287
28.2459,1775.2821
28.2679,1815.1152
28.2899,1877.3039
28.3119,1825.3656
28.3339,1782.6637
28.3559,1814.9136
28.3779,1761.5328
28.3999,1647.5573
28.4219,1682.3424
28.4439,1670.8691
28.4659,1652.5132
28.4879,1597.8145
28.5099,1633.0935
28.5319,1528.159
28.5539,1633.3179
28.5759,1631.5874
28.5979,1632.1859
28.6199,1684.7194
28.6419,1679.5555
28.6639,1687.913
28.6859,1662.5093
28.7079,1660
28.7299,1641.2389
28.7519,1624.7945
28.7739,1711.6
28.7959,1613.6075
28.8179,1717.6197
28.8399,1583.0666
28.8619,1744.0323
28.8839,1663.6023
28.9059,1686.0717
28.9279,1640.0135
28.9499,1736.293
28.9719,1719.8897
28.9939,1835.4186
29.0159,1731.9238
29.0379,1727.7268
29.0599,1776.4484
29.0819,1781.4718
29.1039,1692.6208
29.1259,1637.1504
29.1479,1599.4557
29.1699,1587.587
29.1919,1573.6889
29.2139,1600.9607
29.2359,1616.883
29.2579,1611.8436
29.2799,1589.6613
29.3019,1610.1829
29.3239,1635.5576
29.3459,1652.3313
29.3679,1642.1165
29.3899,1635.3982
29.4119,1646.0591
29.4339,1664.4905
29.4559,1608.5944
29.4779,1608.9833
29.4999,1615.4223
29.5219,1628.8851
29.5439,1679.6053
29.5659,1679.7806
29.5879,1666.4795
29.6099,1727.6018
29.6319,1701.8951
29.6539,1670.8969
29.6759,1674.5378
29.6979,1683.0414
29.7199,1724.8938
29.7419,1696.7658
29.7639,1673.3147
29.7859,1691.4484
29.8079,1770.8621
29.8299,1881.7347
29.8519,1929.9086
29.8739,1869.6232
29.8959,1827.4843
29.9179,1838.6195
29.9399,1757.6452
29.9619,1697.1101
29.9839,1656.5972
30.0059,1669.8487
30.0279,1633.6154
30.0499,1628.2921
30.0719,1632.1219
30.0939,1607.2969
30.1159,1611.5354
30.1379,1629.3196
30.1599,1622.9454
30.1819,1698.4221
30.2039,1786.686
30.2259,1826.8939
30.2479,1875.4514
30.2699,2017.1439
30.2919,2060.5394
30.3139,2049.0088
30.3359,2088.6004
30.3579,2057.1631
30.3799,2099.8733
30.4019,2146.3757
30.4239,2213.9126
30.4459,2308.9855
30.4679,2299.91
30.4899,2560.5817
30.5119,2766.9252
30.5339,2906.7535
30.5559,2949.4539
30.5779,3104.3396
30.5999,3392.0449
30.6219,3486.5577
30.6439,3704.5311
30.6659,3777.4751
30.6879,3855.7299
30.7099,4014.4433
30.7319,4360.326
30.7539,4597.4563
30.7759,5059.4243
30.7979,5564.1998
30.8199,6613.7525
30.8419,8184.9518
30.8639,10589.3646
30.8859,14236.8374
30.9079,19315.0949
30.9299,26976.1773
30.9519,39737.261
30.9739,61638.5779
30.9959,97139.8888
31.0179,148932.7329
31.0399,200047.3876
31.0619,206709.6743
31.0839,161189.0625
31.1059,123457.527
31.1279,97572.918
31.1499,60087.2783
31.1719,27284.0769
31.1939,12746.2958
31.2159,8192.9593
31.2379,6616.4347
31.2599,5885.9094
31.2819,5464.1391
31.3039,5129.7069
31.3259,4805.3568
31.3479,4661.4025
31.3699,4372.7132
31.3919,4113.7158
31.4139,3881.7969
31.4359,3571.2558
31.4579,3262.0251
31.4799,3005.6689
31.5019,2758.9288
31.5239,2624.0804
31.5459,2487.8963
31.5679,2379.1976
31.5899,2258.501
31.6119,2163.6145
31.6339,2131.9763
31.6559,2089.9532
31.6779,2079.6805
31.6999,2098.531
31.7219,2066.9349
31.7439,2090.9982
31.7659,2092.1916
31.7879,2028.4512
31.8099,1960.8366
31.8319,2012.1492
31.8539,2166.2256
31.8759,2243.9573
31.8979,2292.2302
31.9199,2529.1192
31.9419,2803.2651
31.9639,3132.694
31.9859,3551.352
32.0079,3587.752
32.0299,3359.846
32.0519,3137.6411
32.0739,2781.3511
32.0959,2533.2783
32.1179,2285.6189
32.1399,2058.3461
32.1619,1958.9851
32.1839,1862.0927
32.2059,1849.88
32.2279,1890.155
32.2499,1838.0087
32.2719,1793.4896
32.2939,1885.7082
32.3159,1986.2082
32.3379,1970.0629
32.3599,2000.8806
32.3819,2064.6157
32.4039,2059.0654
32.4259,2267.9565
32.4479,2600.1612
32.4699,3205.4092
32.4919,3689.036
32.5139,3927.3519
32.5359,3860.0983
32.5579,3841.7078
32.5799,3772.1267
32.6019,3678.3748
32.6239,3310.7213
32.6459,2747.4706
32.6679,2558.3957
32.6899,2320.849
32.7119,2105.0542
32.7339,1969.4973
32.7559,1871.078
32.7779,1787.2289
32.7999,1732.238
32.8219,1763.4692
32.8439,1792.6423
32.8659,1708.7758
32.8879,1717.8011
32.9099,1794.8339
32.9319,1801.8598
32.9539,1803.7938
32.9759,1851.6635
32.9979,1799.4198
33.0199,1826.4766
33.0419,1930.9167
33.0639,1961.0759
33.0859,1871.3362
33.1079,1850.3923
33.1299,1842.6037
33.1519,1775.8138
33.1739,1650.1198
33.1959,1651.4476
33.2179,1677.1562
33.2399,1597.8896
33.2619,1594.5312
33.2839,1623.3671
33.3059,1601.4622
33.3279,1591.3141
33.3499,1586.826
33.3719,1628.4825
33.3939,1628.637
33.4159,1605.1121
33.4379,1598.0432
33.4599,1566.4522
33.4819,1589.5046
33.5039,1603.4749
33.5259,1565.5948
33.5479,1548
33.5699,1613.4929
33.5919,1598.9585
33.6139,1632.6669
33.6359,1638.5574
33.6579,1635.295
33.6799,1665.0311
33.7019,1631.6183
33.7239,1560.1188
33.7459,1511.8642
33.7679,1570.4963
33.7899,1570.0501
33.8119,1474.3891
33.8339,1506.6393
33.8559,1526.0094
33.8779,1481.4069
33.8999,1494.9671
33.9219,1452.1916
33.9439,1471.9352
33.9659,1493.4032
33.9879,1562.5469
34.0099,1525.8288
34.0319,1533.503
34.0539,1465.6507
34.0759,1481.1948
34.0979,1514.8605
34.1199,1423.9624
34.1419,1459.3895
34.1639,1488.2705
34.1859,1510.6972
34.2079,1507.0059
34.2299,1556.4111
34.2519,1593.8845
34.2739,1591.8675
34.2959,1672.5277
34.3179,1722.5201
34.3399,1715.5782
34.3619,1719.3637
34.3839,1682.6151
34.4059,1697.7225
34.4279,1612.1635
34.4499,1538.3254
34.4719,1518.9557
34.4939,1497.5013
34.5159,1445.8058
34.5379,1444.9381
34.5599,1457.6311
34.5819,1424.6018
34.6039,1443.143
34.6259,1434.8565
34.6479,1443.1991
34.6699,1444.6106
34.6919,1438.1436
34.7139,1441.3459
34.7359,1403.6108
34.7579,1439.5781
34.7799,1412.5943
34.8019,1400.8674
34.8239,1467.3238
34.8459,1512.8622
34.8679,1463.4911
34.8899,1460.4524
34.9119,1469.8245
34.9339,1463.1504
34.9559,1456.4164
34.9779,1446.2821
34.9999,1388.3405
35.0219,1369.2637
35.0439,1419.0526
35.0659,1446.0709
35.0879,1441.5308
35.1099,1426.0591
35.1319,1413.2919
35.1539,1409.5006
35.1759,1474.4614
35.1979,1460.3891
35.2199,1461.6772
35.2419,1488.9331
35.2639,1490.062
35.2859,1479.3795
35.3079,1499.0409
35.3299,1429.1973
35.3519,1339.6532
35.3739,1362.5469
35.3959,1358.1857
35.4179,1396.6138
35.4399,1404.1425
35.4619,1412.7788
35.4839,1435.651
35.5059,1461.5399
35.5279,1492.5517
35.5499,1500.2517
35.5719,1486.3097
35.5939,1423.2623
35.6159,1372.2383
35.6379,1358.2153
35.6599,1383.7213
35.6819,1375.2035
35.7039,1335.29
35.7259,1304.2949
35.7479,1457.1789
35.7699,1440.3116
35.7919,1436.6505
35.8139,1405.6479
35.8359,1369.3096
35.8579,1408.3364
35.8799,1412.9326
35.9019,1419.6146
35.9239,1334.8065
35.9459,1384.3236
35.9679,1492.0357
35.9899,1366.7548
36.0119,1372.968
36.0339,1368.7287
36.0559,1404.0573
36.0779,1310.9183
36.0999,1288.2223
36.1219,1307.1681
36.1439,1280.1568
36.1659,1261.5881
36.1879,1286.8953
36.2099,1284.5958
36.2319,1274.5172
36.2539,1279.2744
36.2759,1285.615
36.2979,1284.1486
36.3199,1314.1077
36.3419,1294.93
36.3639,1246.4319
36.3859,1310.6608
36.4079,1319.9026
36.4299,1320.1555
36.4519,1349.6149
36.4739,1300.2969
36.4959,1313.5278
36.5179,1341.1767
36.5399,1276.3841
36.5619,1300.4934
36.5839,1294.5519
36.6059,1357.5437
36.6279,1337.4946
36.6499,1333.177
36.6719,1375.2628
36.6939,1412.6557
36.7159,1366.6032
36.7379,1324.5681
36.7599,1253.2098
36.7819,1249.8851
36.8039,1280.6534
36.8259,1262.3981
36.8479,1253.416
36.8699,1271.3147
36.8919,1245.6276
36.9139,1236.4751
36.9359,1279.3821
36.9579,1270.1847
36.9799,1259.68
37.0019,1247.5014
37.0239,1192.4059
37.0459,1188.947
37.0679,1207.7891
37.0899,1192.5663
37.1119,1221.1196
37.1339,1244.3668
37.1559,1245.2911
37.1779,1198.637
37.1999,1207.5055
37.2219,1202.8455
37.2439,1179.8008
37.2659,1165.5162
37.2879,1245.4359
37.3099,1237.7639
37.3319,1202.9159
37.3539,1239.8566
37.3759,1228.6415
37.3979,1210.8505
37.4199,1215.9302
37.4419,1239.7434
37.4639,1284.245
37.4859,1210.8404
37.5079,1205.7906
37.5299,1197.7463
37.5519,1253.2067
37.5739,1248.8141
37.5959,1288.0021
37.6179,1250.5289
37.6399,1200.2034
37.6619,1213.6362
37.6839,1209.3569
37.7059,1230.9145
37.7279,1211.733
37.7499,1158.2211
37.7719,1210.4426
37.7939,1156.1438
37.8159,1228.2585
37.8379,1178.54
37.8599,1233.4463
37.8819,1195.2045
37.9039,1201.7273
37.9259,1239.0471
37.9479,1206.9603
37.9699,1246.5958
37.9919,1232.4238
38.0139,1217.7522
38.0359,1200.7655
38.0579,1186.5731
38.0799,1152.7498
38.1019,1164.2153
38.1239,1157.8944
38.1459,1187.8014
38.1679,1200.4987
38.1899,1242.5181
38.2119,1204.051
38.2339,1179.4602
38.2559,1199.242
38.2779,1209.3736
38.2999,1183.8761
38.3219,1162.6853
38.3439,1156.6068
38.3659,1191.18
38.3879,1195.6602
38.4099,1176.6164
38.4319,1205.0269
38.4539,1263.5681
38.4759,1232.3197
38.4979,1258.1858
38.5199,1264.0757
38.5419,1269.5801
38.5639,1272.0251
38.5859,1242.6665
38.6079,1187.7546
38.6299,1170.1239
38.6519,1153.5604
38.6739,1175.5145
38.6959,1228.1653
38.7179,1188.6261
38.7399,1144.3048
38.7619,1167.9972
38.7839,1197.8767
38.8059,1187.4404
38.8279,1198.8231
38.8499,1186.4433
38.8719,1179.1058
38.8939,1150.7756
38.9159,1162.2135
38.9379,1197.1043
38.9599,1154.6886
38.9819,1203.2225
39.0039,1148.7951
39.0259,1174.0268
39.0479,1181.8155
39.0699,1173.4297
39.0919,1128.1901
39.1139,1152.4082
39.1359,1159.4828
39.1579,1127.9674
39.1799,1139.9603
39.2019,1104.2044
39.2239,1124.2346
39.2459,1157.2085
39.2679,1189.415
39.2899,1226.8349
39.3119,1152.2451
39.3339,1144.0364
39.3559,1117.8863
39.3779,1128.1908
39.3999,1147.0851
39.4219,1181.8143
39.4439,1169.2954
39.4659,1188.594
39.4879,1201.3806
39.5099,1169.3372
39.5319,1082.3793
39.5539,1154.8793
39.5759,1207.8723
39.5979,1130.5213
39.6199,1181.9158
39.6419,1135.3767
39.6639,1173.4862
39.6859,1159.519
39.7079,1099.6512
39.7299,1046.594
39.7519,1080.0559
39.7739,1033.194
39.7959,1117.0705
39.8179,1178.7877
39.8399,1195.6947
39.8619,1191.1466
39.8839,1204.6076
39.9059,1181.6331
39.9279,1155.5246
39.9499,1180.661
39.9719,1210.746
39.9939,1129.7091
40.0159,1189.7657
40.0379,1206.6515
40.0599,1107.0577
40.0819,1134.3952
40.1039,1115.9046
40.1259,1101.4277
40.1479,1112.5636
40.1699,1154.7178
40.1919,1139.8495
40.2139,1155.6109
40.2359,1207.4651
40.2579,1182.7431
40.2799,1136.8274
40.3019,1145.0787
40.3239,1140.8897
40.3459,1111.0059
40.3679,1141.3218
40.3899,1196.7602
40.4119,1212.8584
40.4339,1184.4787
40.4559,1163.2297
40.4779,1202.0769
40.4999,1192.0362
40.5219,1149.583
40.5439,1133.9247
40.5659,1112.6833
40.5879,1128.0208
40.6099,1154.177
40.6319,1160.9376
40.6539,1161.2006
40.6759,1186.3202
40.6979,1198.6293
40.7199,1184.5398
40.7419,1150.7432
40.7639,1142.6126
40.7859,1214.0288
40.8079,1247
40.8299,1208.6026
40.8519,1201.946
40.8739,1198.7728
40.8959,1229.0754
40.9179,1202.8877
40.9399,1221.1432
40.9619,1204.756
40.9839,1215.8201
41.0059,1275.956
41.0279,1257.6498
41.0499,1276.2735
41.0719,1280.3333
41.0939,1251.2487
41.1159,1215.1149
41.1379,1249.1594
41.1599,1230.29
41.1819,1128.5729
41.2039,1115.1858
41.2259,1176.598
41.2479,1163.3667
41.2699,1187.4868
41.2919,1147.8814
41.3139,1154.7168
41.3359,1153.0383
41.3579,1107.3165
41.3799,1176.0866
41.4019,1191.6991
41.4239,1171.5508
41.4459,1064.1016
41.4679,1159.3467
41.4899,1199.3313
41.5119,1185.8838
41.5339,1144.2185
41.5559,1198.5307
41.5779,1134.2321
41.5999,1142.2878
41.6219,1193.4368
41.6439,1239.6484
41.6659,1197.6104
41.6879,1123.6409
41.7099,1090.3573
41.7319,1181.891
41.7539,1185.4892
41.7759,1072.4932
41.7979,1090.0798
41.8199,1122.7685
41.8419,1150.602
41.8639,1199.4823
41.8859,1208.5929
41.9079,1196.3754
41.9299,1152.0619
41.9519,1152.5998
41.9739,1139.1129
41.9959,1152.3367
42.0179,1211.6241
42.0399,1173.4486
42.0619,1169.2651
42.0839,1142.4738
42.1059,1205.6991
42.1279,1218.1962
42.1499,1222.7728
42.1719,1223.1662
42.1939,1221.876
42.2159,1227.9539
42.2379,1219.399
42.2599,1217.332
42.2819,1243.9626
42.3039,1240.4351
42.3259,1238.4661
42.3479,1245.647
42.3699,1291.6541
42.3919,1287.6104
42.4139,1270.3295
42.4359,1332.3705
42.4579,1403.422
42.4799,1418.1804
42.5019,1516.4253
42.5239,1606.2937
42.5459,1699.1931
42.5679,1923.0102
42.5899,2294.0633
42.6119,2989.6801
42.6339,4450.4981
42.6559,7049.5403
42.6779,10876.6198
42.6999,14730.6638
42.7219,15359.2995
42.7439,12092.3118
42.7659,9188.5299
42.7879,8600.9821
42.8099,8545.9575
42.8319,6755.5835
42.8539,4185.0801
42.8759,2544.1744
42.8979,1891.3996
42.9199,1579.0434
42.9419,1448.9239
42.9639,1405.7275
42.9859,1407.4159
43.0079,1369.5721
43.0299,1298.3115
43.0519,1309.9116
43.0739,1246.2761
43.0959,1228.5383
43.1179,1228
43.1399,1234.9209
43.1619,1243.8925
43.1839,1135.8896
43.2059,1201.4631
43.2279,1180.735
43.2499,1173.4985
43.2719,1165.6235
43.2939,1187.5338
43.3159,1155.3465
43.3379,1138
43.3599,1135.9911
43.3819,1118.2654
43.4039,1105.8638
43.4259,1102.4759
43.4479,1095.2347
43.4699,1118.6359
43.4919,1047.4051
43.5139,1027.106
43.5359,1007.3749
43.5579,1069.4445
43.5799,1060.6813
43.6019,1026.0128
43.6239,1041.9142
43.6459,1099.5281
43.6679,1105.5958
43.6899,1114.1664
43.7119,1132.4968
43.7339,1091.6166
43.7559,1103.346
43.7779,1086.3451
43.7999,1073.0603
43.8219,1056.1338
43.8439,1087.5724
43.8659,1091.5534
43.8879,1085.3075
43.9099,1131.4189
43.9319,1157.8704
43.9539,1122.8195
43.9759,1043.7478
43.9979,1060.0207
44.0199,1077.6068
44.0419,1096.3747
44.0639,1090.3573
44.0859,1076
44.1079,1074.4115
44.1299,1045.9104
44.1519,1052.3664
44.1739,1057.3096
44.1959,1052.2587
44.2179,1069.6372
44.2399,1060.1091
44.2619,1076.6993
44.2839,1078.9321
44.3059,1059.7581
44.3279,1020.727
44.3499,1043.5469
44.3719,1039.6282
44.3939,1023.8643
44.4159,1059.8851
44.4379,1071.7168
44.4599,1049.6676
44.4819,1037.5693
44.5039,1054.0178
44.5259,1037.109
44.5479,1012.9429
44.5699,1037.9293
44.5919,1016.4035
44.6139,1011.4366
44.6359,1019.4204
44.6579,1067.0228
44.6799,1073.4528
44.7019,1009.2593
44.7239,1088.1124
44.7459,1111.6313
44.7679,1090.5442
44.7899,1119.8684
44.8119,1110.0806
44.8339,1128.6372
44.8559,1077.8931
44.8779,1059.645
44.8999,1083.2995
44.9219,1091.8742
44.9439,1147.8075
44.9659,1091.0531
44.9879,1097.5075
45.0099,1121.3344
45.0319,1129.9026
45.0539,1108.0443
45.0759,1127.8123
45.0979,1165.9086
45.1199,1170.4964
45.1419,1118.6431
45.1639,1110.7386
45.1859,1020.3788
45.2079,1068.7119
45.2299,1064.6548
45.2519,1050.9882
45.2739,1046.3619
45.2959,1048.3864
45.3179,1055.1377
45.3399,1064.5456
45.3619,1025.3894
45.3839,1019.2729
45.4059,1014.9626
45.4279,1010.6018
45.4499,1015.5585
45.4719,1033.9097
45.4939,1067.404
45.5159,1037.0387
45.5379,1044.7978
45.5599,1094.8316
45.5819,1059.1781
45.6039,1079.2876
45.6259,1059.3242
45.6479,999.0657
45.6699,1001.9668
45.6919,1081.5711
45.7139,1108.9428
45.7359,1089.0246
45.7579,1055.1236
45.7799,1075.325
45.8019,1144.2467
45.8239,1129.9528
45.8459,1166.0337
45.8679,1176.4118
45.8899,1148.7492
45.9119,1202.5731
45.9339,1251.351
45.9559,1248.8761
45.9779,1311.7408
45.9999,1369.5576
46.0219,1463.2306
46.0439,1651.1674
46.0659,2035.1049
46.0879,2609.8606
46.1099,3703.3036
46.1319,5564.8869
46.1539,8218.3463
46.1759,10359.1369
46.1979,9756.2135
46.2199,7171.3659
46.2419,5527.7012
46.2639,5451.2818
46.2859,5956.415
46.3079,4927.1932
46.3299,3063.8536
46.3519,2004.63
46.3739,1534.1039
46.3959,1332.6032
46.4179,1226.7342
46.4399,1237.4677
46.4619,1147.5552
46.4839,1183.9869
46.5059,1171.2693
46.5279,1156.5403
46.5499,1159.469
46.5719,1090.2303
46.5939,1090.3471
46.6159,1074.2477
46.6379,1066.3992
46.6599,1083.1948
46.6819,1097.5458
46.7039,1067.6248
46.7259,1045.173
46.7479,1070.0044
46.7699,1070.8328
46.7919,1060.7389
46.8139,1054.7259
46.8359,1119.1254
46.8579,1139.9224
46.8799,1152.9218
46.9019,1153.8093
46.9239,1174.9799
46.9459,1208.8233
46.9679,1253.3373
46.9899,1176.1601
47.0119,1366.5576
47.0339,1445.3689
47.0559,1807.0166
47.0779,2378.9793
47.0999,3317.5409
47.1219,4846.5326
47.1439,6628.8946
47.1659,7469.1639
47.1879,6058.7535
47.2099,4340.7403
47.2319,3844.0416
47.2539,4264.7313
47.2759,4205.1169
47.2979,3260.6389
47.3199,2049.823
47.3419,1486.8486
47.3639,1269.188
47.3859,1206.3609
47.4079,1159.2355
47.4299,1091.7199
47.4519,1099.67
47.4739,1069.9291
47.4959,1063.2911
47.5179,1042.1
47.5399,1040.903
47.5619,1053.5906
47.5839,1008.3574
47.6059,1007.6135
47.6279,1016.4018
47.6499,1017.3077
47.6719,970.075
47.6939,952.4554
47.7159,977.4499
47.7379,953.5485
47.7599,932.1284
47.7819,974.4191
47.8039,1009.1328
47.8259,1000.0461
47.8479,986.6671
47.8699,929.0793
47.8919,972.2969
47.9139,991.701
47.9359,965.3008
47.9579,969.5674
47.9799,972.9218
48.0019,935.339
48.0239,909.2404
48.0459,923.9696
48.0679,942.8703
48.0899,993.7593
48.1119,979.1075
48.1339,998.8143
48.1559,970.6114
48.1779,933.6862
48.1999,991.4354
48.2219,899.1972
48.2439,973.6253
48.2659,1006.4927
48.2879,1021.1072
48.3099,982.6537
48.3319,993.8983
48.3539,1019.4436
48.3759,1010.1184
48.3979,1008.0737
48.4199,959.1955
48.4419,966.4592
48.4639,966.0369
48.4859,992.3364
48.5079,1020.656
48.5299,979.9999
48.5519,966
48.5739,966.1967
48.5959,974.4794
48.6179,985.0333
48.6399,947.4917
48.6619,952.7137
48.6839,926.3231
48.7059,961.4232
48.7279,1054.4557
48.7499,1032.7709
48.7719,1032.7883
48.7939,1078.6753
48.8159,1016.2836
48.8379,1016.9708
48.8599,1096.7435
48.8819,1129.82
48.9039,1128.7611
48.9259,1135.699
48.9479,1110.7006
48.9699,1098.0047
48.9919,1045.289
49.0139,1024.648
49.0359,1019.0211
49.0579,1014.59
49.0799,1013.2345
49.1019,973.1255
49.1239,915.9338
49.1459,957.3571
49.1679,980.0693
49.1899,980.1563
49.2119,985.3826
49.2339,1019.8458
49.2559,1024.4186
49.2779,988.179
49.2999,1015.0793
49.3219,1019.106
49.3439,1016.2864
49.3659,1067.6825
49.3879,1060.7181
49.4099,1033.9332
49.4319,1074.7874
49.4539,1084.6724
49.4759,1087.483
49.4979,1152.0199
49.5199,1144.5174
49.5419,1146.0543
49.5639,1241.1666
49.5859,1427.874
49.6079,1750.6563
49.6299,2248.2244
49.6519,3175.5913
49.6739,4903.7599
49.6959,7300.191
49.7179,9134.4656
49.7399,8990.0412
49.7619,7162.968
49.7839,5401.8939
49.8059,5030.5462
49.8279,5316.636
49.8499,5118.4882
49.8719,4031.8171
49.8939,2653.8964
49.9159,1763.0548
49.9379,1396.0492
49.9599,1256.3142
49.9819,1114.1292
50.0039,1053.8833
50.0259,1110.5204
50.0479,1054.305
50.0699,1108.2491
50.0919,1068.3852
50.1139,1003.4776
50.1359,976.2605
50.1579,1084.9641
50.1799,1048.0647
50.2019,1024.3834
50.2239,978.5185
50.2459,928.0647
50.2679,941.536
50.2899,919.3844
50.3119,940.9027
50.3339,899.0787
50.3559,910.7943
50.3779,995.5661
50.3999,923.4474
50.4219,933.6844
50.4439,944.3761
50.4659,935.1022
50.4879,921.6193
50.5099,892.6108
50.5319,931.0573
50.5539,981.1915
50.5759,921.0075
50.5979,949.1356
50.6199,945.0355
50.6419,960.6044
50.6639,914.2236
50.6859,984.7737
50.7079,940.0132
50.7299,920.3962
50.7519,925.1388
50.7739,945.3302
50.7959,918.1815
50.8179,921.5819
50.8399,889.4603
50.8619,907.7315
50.8839,903.6059
50.9059,916.9202
50.9279,908.044
50.9499,913.5581
50.9719,869.4869
50.9939,922.2195
51.0159,939.5554
51.0379,910.6047
51.0599,926.2312
51.0819,924.989
51.1039,877.8494
51.1259,869.5636
51.1479,915.5199
51.1699,905.0557
51.1919,876.1294
51.2139,880.0107
51.2359,864.9056
51.2579,880.9156
51.2799,879.1537
51.3019,862
51.3239,881.0729
51.3459,873.0697
51.3679,851.9012
51.3899,855.5762
51.4119,906.37
51.4339,921.0619
51.4559,899.9404
51.4779,872.2958
51.4999,834.6282
51.5219,828.3875
51.5439,821.058
51.5659,874.4782
51.5879,904.9592
51.6099,908.4415
51.6319,894.3392
51.6539,824.9013
51.6759,884.8234
51.6979,909.4602
51.7199,937.1594
51.7419,888.5907
51.7639,872.3864
51.7859,881.829
51.8079,873.1922
51.8299,876.9056
51.8519,882.2798
51.8739,914.2568
51.8959,849.4377
51.9179,911.4261
51.9399,866.5981
51.9619,849.0737
51.9839,861.0158
52.0059,830.9143
52.0279,918.7024
52.0499,812.8108
52.0719,884.3725
52.0939,892.9381
52.1159,875.0069
52.1379,876.701
52.1599,857.4114
52.1819,837.2822
52.2039,842.5269
52.2259,818.0119
52.2479,846.8456
52.2699,850.9059
52.2919,912.5266
52.3139,926.9125
52.3359,925.5341
52.3579,860.6222
52.3799,814.5097
52.4019,798.4036
52.4239,904.9307
52.4459,910.056
52.4679,885.9964
52.4899,861.6107
52.5119,873.2025
52.5339,858.2319
52.5559,834.9853
52.5779,857.8467
52.5999,876.44
52.6219,865.5693
52.6439,856.0314
52.6659,857.2254
52.6879,907.4737
52.7099,919.8699
52.7319,855.8395
52.7539,846.7909
52.7759,890.9286
52.7979,876.6932
52.8199,860.3037
52.8419,852.4534
52.8639,882.4829
52.8859,917.0444
52.9079,930.4193
52.9299,980.1097
52.9519,1042.4719
52.9739,1021.4473
52.9959,984.7309
53.0179,940.1975
53.0399,929.3541
53.0619,909.2741
53.0839,915.5666
53.1059,919.7383
53.1279,882.0908
53.1499,883.8526
53.1719,928.0445
53.1939,956.6628
53.2159,938.7521
53.2379,924.3697
53.2599,933.6387
53.2819,914.1149
53.3039,875.6478
53.3259,925.5097
53.3479,959.1505
53.3699,1018.7309
53.3919,1002.8857
53.4139,1031.4457
53.4359,993.1728
53.4579,992.0768
53.4799,1060.0048
53.5019,1053.3332
53.5239,1046
53.5459,1083.7111
53.5679,1156.5431
53.5899,1234.6748
53.6119,1446.8992
53.6339,1858.8209
53.6559,2692.7991
53.6779,3917.899
53.6999,5635.8096
53.7219,6937.1496
53.7439,6602.5083
53.7659,4932.3674
53.7879,3546.5373
53.8099,3245.4828
53.8319,3821.8722
53.8539,4021.3734
53.8759,3445.8029
53.8979,2329.0869
53.9199,1609.4187
53.9419,1206.6161
53.9639,1104.8772
53.9859,1019.3617
54.0079,987.0605
54.0299,985.3804
54.0519,952.4253
54.0739,955.2477
54.0959,938.8904
54.1179,945.5597
54.1399,989.9333
54.1619,925.4395
54.1839,917.2013
54.2059,855.2093
54.2279,845.5706
54.2499,894.0637
54.2719,852.6948
54.2939,876.4935
54.3159,859.5581
54.3379,870.4484
54.3599,870.5431
54.3819,846.5752
54.4039,840.8451
54.4259,839.1779
54.4479,837.0448
54.4699,829.1059
54.4919,783.6249
54.5139,788.1366
54.5359,793.484
54.5579,821.8515
54.5799,843.7835
54.6019,861.4362
54.6239,817.8786
54.6459,812.991
54.6679,809.1683
54.6899,820.521
54.7119,815.9834
54.7339,804.2299
54.7559,793.2646
54.7779,808.5467
54.7999,821.0886
54.8219,823.1189
54.8439,808.8899
54.8659,807.5398
54.8879,821.2508
54.9099,834.2576
54.9319,811.7786
54.9539,828.1615
54.9759,832.1577
54.9979,807.9557
55.0199,834.7967
55.0419,814.7962
55.0639,773.7875
55.0859,830.9365
55.1079,823.1482
55.1299,825.6816
55.1519,822.0078
55.1739,862.9855
55.1959,871.1371
55.2179,800.7164
55.2399,830.9118
55.2619,840.6283
55.2839,891.3616
55.3059,892.8583
55.3279,891.3938
55.3499,903.3432
55.3719,837.7307
55.3939,862.2362
55.4159,849.6695
55.4379,848.5782
55.4599,831.5663
55.4819,846.6795
55.5039,888.4358
55.5259,858.4748
55.5479,861.4459
55.5699,813.4767
55.5919,864.8351
55.6139,797.1285
55.6359,827.9505
55.6579,837.8407
55.6799,819.1027
55.7019,893.5799
55.7239,833.9589
55.7459,880.4825
55.7679,807.201
55.7899,897.7669
55.8119,870.4391
55.8339,787.9345
55.8559,864.8627
55.8779,839.6862
55.8999,800.4149
55.9219,790.2156
55.9439,856.2627
55.9659,873.5091
55.9879,820.3332
56.0099,791.832
56.0319,818.7813
56.0539,859.558
56.0759,914.3156
56.0979,826.2469
56.1199,840.6342
56.1419,836.065
56.1639,834.655
56.1859,791.8143
56.2079,813.6292
56.2299,802.83
56.2519,821.2258
56.2739,844.5085
56.2959,846.7889
56.3179,819.2448
56.3399,816.3633
56.3619,826.3905
56.3839,843.9395
56.4059,855.8044
56.4279,864.0501
56.4499,845.5309
56.4719,851.8537
56.4939,850.7913
56.5159,818.2316
56.5379,824.3697
56.5599,822.1376
56.5819,814.5074
56.6039,829.8787
56.6259,841.2458
56.6479,825.2919
56.6699,811.0708
56.6919,820.4396
56.7139,816.6931
56.7359,774.4334
56.7579,811.6858
56.7799,819.106
56.8019,820.3718
56.8239,819.4242
56.8459,787.0972
56.8679,798.3576
56.8899,807.647
56.9119,818.2921
56.9339,837.2085
56.9559,800.5514
56.9779,764.286
56.9999,777.4977
57.0219,776.8121
57.0439,788.3762
57.0659,818.3748
57.0879,766.627
57.1099,826.1774
57.1319,838.7477
57.1539,801.0037
57.1759,783.0353
57.1979,830.7181
57.2199,813.4959
57.2419,854.9648
57.2639,835.6134
57.2859,794.5426
57.3079,803.562
57.3299,824.2449
57.3519,836.2159
57.3739,854.8791
57.3959,774.9696
57.4179,798.0365
57.4399,872.341
57.4619,842.3145
57.4839,872.0296
57.5059,883.9852
57.5279,882.1075
57.5499,849.764
57.5719,841.4187
57.5939,794.5753
57.6159,800.8661
57.6379,781.018
57.6599,842.6976
57.6819,837.9645
57.7039,825.7612
57.7259,846.0804
57.7479,804.6513
57.7699,786.8143
57.7919,824.7926
57.8139,840.4288
57.8359,847.2167
57.8579,825.8691
57.8799,800.5393
57.9019,793.6519
57.9239,821.5938
57.9459,881.9222
57.9679,853.8155
57.9899,857.3946
58.0119,889.3995
58.0339,851.1591
58.0559,841.1693
58.0779,871.6686
58.0999,843.8846
58.1219,782.8986
58.1439,787.5902
58.1659,829.3394
58.1879,851.6253
58.2099,834.5338
58.2319,820.4647
58.2539,825.8368
58.2759,775.8363
58.2979,745.8056
58.3199,797.8419
58.3419,833.418
58.3639,868.776
58.3859,872.3017
58.4079,882.9343
58.4299,883.637
58.4519,912.9807
58.4739,967.7779
58.4959,966.0751
58.5179,969.183
58.5399,985.7016
58.5619,1027.2835
58.5839,1117.6377
58.6059,1139.4915
58.6279,1204.3501
58.6499,1257.4622
58.6719,1284.9839
58.6939,1331.9589
58.7159,1352.4538
58.7379,1346.2664
58.7599,1462.4624
58.7819,1568.2108
58.8039,1863.0326
58.8259,2403.5602
58.8479,3227.3541
58.8699,4674.9944
58.8919,7267.2813
58.9139,11508.0786
58.9359,17072.528
58.9579,21052.3464
58.9799,19600.5414
59.0019,13632.6291
59.0239,8929.1352
59.0459,7885.4342
59.0679,9094.4456
59.0899,10990.64
59.1119,10955.9998
59.1339,7940.2193
59.1559,4615.516
59.1779,2762.6017
59.1999,1993.4953
59.2219,1666.1756
59.2439,1465.7793
59.2659,1375.1727
59.2879,1229.7108
59.3099,1200.5297
59.3319,1135.5337
59.3539,1094.1504
59.3759,1074.9772
59.3979,1045.8714
59.4199,1080.6459
59.4419,1056.6382
59.4639,1072.8693
59.4859,1083.9913
59.5079,1119.662
59.5299,1157.7609
59.5519,1121.6341
59.5739,1081.4323
59.5959,1025.3648
59.6179,1026.6106
59.6399,1016.7206
59.6619,1000.7879
59.6839,1038.7061
59.7059,954.8334
59.7279,885.0492
59.7499,886.4365
59.7719,868.6661
59.7939,856.7581
59.8159,857.6415
59.8379,854.1289
59.8599,859.3711
59.8819,852.3422
59.9039,837.7574
59.9259,820.2695
59.9479,856.953
59.9699,860.6054
59.9919,839.3931
60.0139,843.9643
60.0359,827.4112
60.0579,825.6044
60.0799,808.7347
60.1019,838.2557
60.1239,815.7436
60.1459,808.5459
60.1679,838.0276
60.1899,805.9161
60.2119,768.4734
60.2339,794.4034
60.2559,815.3466
60.2779,798.2241
60.2999,825.7245
60.3219,822.6595
60.3439,803.6018
60.3659,754.5424
60.3879,754.4939
60.4099,794.3895
60.4319,787.815
60.4539,759.4709
60.4759,752.6962
60.4979,776.6491
60.5199,743.6851
60.5419,738.5075
60.5639,748.3393
60.5859,740.4385
60.6079,712.3229
60.6299,717.6815
60.6519,745.1712
60.6739,740.23
60.6959,716.2791
60.7179,733.6589
60.7399,737.3569
60.7619,718.6557
60.7839,724.3073
60.8059,719.1327
60.8279,713.6465
60.8499,765.0966
60.8719,738.8745
60.8939,714.1258
60.9159,734.0768
60.9379,747.1859
60.9599,685.6664
60.9819,671.4759
61.0039,748.5225
61.0259,729.4109
61.0479,747.8787
61.0699,720.8819
61.0919,701.5641
61.1139,732.0305
61.1359,733.1283
61.1579,738.9186
61.1799,786.373
61.2019,752.7081
61.2239,776.1849
61.2459,703.7947
61.2679,747.68
61.2899,764.3932
61.3119,740
61.3339,738.466
61.3559,739.1128
61.3779,780.5505
61.3999,761.1416
61.4219,761.9488
61.4439,731.6049
61.4659,698.5343
61.4879,748.9579
61.5099,702.2793
61.5319,720.0163
61.5539,728.4738
61.5759,704.1876
61.5979,691.7347
61.6199,708.0387
61.6419,697.3443
61.6639,730.0664
61.6859,749.1014
61.7079,764.913
61.7299,748.3892
61.7519,703.8798
61.7739,675.593
61.7959,692.5223
61.8179,717.476
61.8399,736.8496
61.8619,752.829
61.8839,737.427
61.9059,752.6209
61.9279,785.4128
61.9499,758.0638
61.9719,735.3131
61.9939,736.4426
62.0159,729.9674
62.0379,726.9342
62.0599,719.7889
62.0819,707.5713
62.1039,724.9239
62.1259,729.2536
62.1479,708.7958
62.1699,698.3795
62.1919,696.1018
62.2139,711.126
62.2359,718.6853
62.2579,728.0443
62.2799,705.0416
62.3019,722.545
62.3239,726.8156
62.3459,732.3442
62.3679,690.6733
62.3899,735.6995
62.4119,740.3755
62.4339,718.1051
62.4559,698.9557
62.4779,737.7967
62.4999,781.1929
62.5219,768.5722
62.5439,722.5297
62.5659,726.6254
62.5879,735.8319
62.6099,737
62.6319,741.3928
62.6539,731.3097
62.6759,760.7071
62.6979,785.0552
62.7199,722.9864
62.7419,738.6805
62.7639,757.1417
62.7859,765.7169
62.8079,754.2772
62.8299,786.6432
62.8519,765.8905
62.8739,692.3718
62.8959,720.1988
62.9179,763.1591
62.9399,716.1391
62.9619,705.0348
62.9839,777.668
63.0059,748.2123
63.0279,742.2956
63.0499,754.3684
63.0719,687.3683
63.0939,697.2734
63.1159,699.8938
63.1379,701.6135
63.1599,681.0496
63.1819,677.4074
63.2039,711.1118
63.2259,671.6275
63.2479,704.4454
63.2699,697.5396
63.2919,693.9882
63.3139,755.578
63.3359,741.7599
63.3579,794.2734
63.3799,805.9293
63.4019,835.1291
63.4239,862.258
63.4459,836.6665
63.4679,797.7554
63.4899,771.295
63.5119,769.0043
63.5339,762.7101
63.5559,759.8655
63.5779,737.9559
63.5999,730.4506
63.6219,714.95
63.6439,736.8835
63.6659,723.3813
63.6879,721.5528
63.7099,716.6693
63.7319,730.3672
63.7539,763.3538
63.7759,743.7876
63.7979,724.2201
63.8199,722.3034
63.8419,716.0264
63.8639,722.1398
63.8859,737.1583
63.9079,749.2376
63.9299,744.9252
63.9519,764.1054
63.9739,789.1682
63.9959,766.4536
64.0179,753.6116
64.0399,772.9603
64.0619,760.9979
64.0839,788.9378
64.1059,741.4096
64.1279,734.7165
64.1499,754.6264
64.1719,757.5221
64.1939,784.7957
64.2159,788.6553
64.2379,815.7052
64.2599,799.5687
64.2819,829.8183
64.3039,843.0634
64.3259,838.2251
64.3479,801.8346
64.3699,847.6729
64.3919,878.5463
64.4139,894.238
64.4359,872.0662
64.4579,904.9491
64.4799,888.9576
64.5019,938.7053
64.5239,928.0304
64.5459,1004.7271
64.5679,1168.3902
64.5899,1416.1733
64.6119,1878.9458
64.6339,2824.2289
64.6559,4091.8138
64.6779,5904.5302
64.6999,7268.1376
64.7219,6692.1872
64.7439,4631.3301
64.7659,3239.8287
64.7879,2667.9393
64.8099,2962.1439
64.8319,3612.4685
64.8539,4023.4045
64.8759,3769.9982
64.8979,2719.0896
64.9199,1824.8541
64.9419,1390.3201
64.9639,1150.8404
64.9859,1086.2099
65.0079,1005.116
65.0299,1002.2952
65.0519,1010.7862
65.0739,949.9579
65.0959,976.9173
65.1179,974.361
65.1399,1026.2964
65.1619,1164.9658
65.1839,1404.5616
65.2059,1712.5619
65.2279,2207.4701
65.2499,2565.2255
65.2719,2411.9214
65.2939,1882.1275
65.3159,1468.3193
65.3379,1252.2674
65.3599,1322.4921
65.3819,1499.3922
65.4039,1669.0491
65.4259,1633.4261
65.4479,1322.0009
65.4699,1072.0669
65.4919,926.8358
65.5139,833.4607
65.5359,820.5603
65.5579,807.3712
65.5799,772.8324
65.6019,753.1826
65.6239,754.6566
65.6459,791.9982
65.6679,781.2864
65.6899,745.9763
65.7119,731.0034
65.7339,718.6027
65.7559,731.9648
65.7779,763.7219
65.7999,786.0242
65.8219,758.9614
65.8439,733.2502
65.8659,735.1682
65.8879,690.5601
65.9099,722.5353
65.9319,717.9998
65.9539,750.6021
65.9759,716.7106
65.9979,700.7591
66.0199,689.4291
66.0419,693.0531
66.0639,686.2443
66.0859,715.5223
66.1079,708.23
66.1299,742.4781
66.1519,728.0264
66.1739,688.8454
66.1959,701.2641
66.2179,721.6402
66.2399,681.9678
66.2619,719.6099
66.2839,711.1356
66.3059,716.5182
66.3279,769.8341
66.3499,671.6897
66.3719,699.9136
66.3939,699.0393
66.4159,700.9853
66.4379,671.374
66.4599,746.6902
66.4819,729.177
66.5039,734.9164
66.5259,727.5914
66.5479,638.9739
66.5699,721.0333
66.5919,697.5452
66.6139,695.6845
66.6359,719
66.6579,716.699
66.6799,707.866
66.7019,742.6841
66.7239,707.9294
66.7459,734.4601
66.7679,726.3286
66.7899,748.2927
66.8119,692.5029
66.8339,703.0574
66.8559,763.2459
66.8779,765.2062
66.8999,712.846
66.9219,683.9429
66.9439,683.2436
66.9659,725.1987
66.9879,728.1316
67.0099,708.4572
67.0319,700.0103
67.0539,730.6238
67.0759,755.091
67.0979,697.6479
67.1199,691.6313
67.1419,702.5841
67.1639,719.0842
67.1859,697.7921
67.2079,676.1523
67.2299,704.6046
67.2519,696.2178
67.2739,680.1768
67.2959,670.1068
67.3179,712.7938
67.3399,740.4557
67.3619,724.4502
67.3839,692.2628
67.4059,698.4663
67.4279,743.6689
67.4499,748.0313
67.4719,736
67.4939,781.2118
67.5159,826.5724
67.5379,890.5137
67.5599,925.2635
67.5819,946.6098
67.6039,934.3715
67.6259,883.219
67.6479,839.4865
67.6699,822.4542
67.6919,776.2583
67.7139,812.553
67.7359,850.7922
67.7579,816.1688
67.7799,795.2079
67.8019,743.1472
67.8239,766.9629
67.8459,736.8395
67.8679,720.3731
67.8899,726.3452
67.9119,693.2063
67.9339,683.4779
67.9559,710.2961
67.9779,722.7877
67.9999,704.6931
68.0219,716.238
68.0439,701.761
68.0659,690.8554
68.0879,696.4873
68.1099,690.4267
68.1319,682.3893
68.1539,688.7454
68.1759,673.3854
68.1979,694.7405
68.2199,644.0214
68.2419,687.0767
68.2639,692.9498
68.2859,690.0284
68.3079,666.3905
68.3299,693.8673
68.3519,703.2136
68.3739,656
68.3959,655.0117
68.4179,648.4446
68.4399,677.379
68.4619,732.6013
68.4839,659.556
68.5059,654.9164
68.5279,655.9074
68.5499,719.2853
68.5719,734.3822
68.5939,683.8378
68.6159,681.6783
68.6379,669.0847
68.6599,703.2864
68.6819,721.9149
68.7039,653.5217
68.7259,667.5311
68.7479,683.4322
68.7699,693.0767
68.7919,673.3965
68.8139,638.3265
68.8359,643.3446
68.8579,640.4306
68.8799,655.4153
68.9019,692
68.9239,675.8538
68.9459,660.3403
68.9679,675.6736
68.9899,670.6784
69.0119,673.4033
69.0339,695.3737
69.0559,689.4408
69.0779,677.8388
69.0999,687.4135
69.1219,708.1329
69.1439,707.4984
69.1659,660.7303
69.1879,662.313
69.2099,691.3216
69.2319,711.5424
69.2539,705.342
69.2759,690.4095
69.2979,694.8221
69.3199,669.7077
69.3419,704.6966
69.3639,709.1355
69.3859,685.525
69.4079,709.5612
69.4299,713.8524
69.4519,691.0913
69.4739,697.7228
69.4959,654.7769
69.5179,630.646
69.5399,668.8498
69.5619,673.2467
69.5839,657.0368
69.6059,627.4305
69.6279,617.6386
69.6499,652.1743
69.6719,700.7736
69.6939,673.7441
69.7159,703.633
69.7379,693.1798
69.7599,720.1305
69.7819,660.386
69.8039,684.6472
69.8259,666.5564
69.8479,689.481
69.8699,656.0293
69.8919,637.1115
69.9139,647.3629
69.9359,662.388
69.9579,637.7413
69.9799,686.1891
70.0019,739.7918
70.0239,679.8076
70.0459,657.9708
70.0679,700.7713
70.0899,607.8999
70.1119,649.3807
70.1339,674.8626
70.1559,707.5808
70.1779,648.3216
70.1999,660.3598
70.2219,660.4732
70.2439,699.556
70.2659,692.297
70.2879,704.909
70.3099,695.3008
70.3319,689.4502
70.3539,739.4472
70.3759,719.9958
70.3979,757.302
70.4199,774.0303
70.4419,762.9501
70.4639,801.6757
70.4859,840.7278
70.5079,876.7746
70.5299,913.8358
70.5519,924.954
70.5739,940.2711
70.5959,928.2669
70.6179,984.8044
70.6399,989.1872
70.6619,975.9184
70.6839,992.6899
70.7059,1035.3632
70.7279,1090.0755
70.7499,1151.7733
70.7719,1285.8256
70.7939,1548.6685
70.8159,2020.7758
70.8379,2755.3468
70.8599,3977.2842
70.8819,6036.4827
70.9039,8989.0186
70.9259,12197.1807
70.9479,13631.0165
70.9699,11673.868
70.9919,8148.003
71.0139,5629.4071
71.0359,4620.3518
71.0579,4659.3894
71.0799,5610.9642
71.1019,6825.9619
71.1239,7271.95
71.1459,6165.5763
71.1679,4311.5884
71.1899,2843.418
71.2119,1956.5438
71.2339,1514.1605
71.2559,1291.2974
71.2779,1163.2688
71.2999,1095.4953
71.3219,1010.5806
71.3439,973.8126
71.3659,875.2353
71.3879,857.3265
71.4099,842.2152
71.4319,796.4555
71.4539,794.0728
71.4759,803.3762
71.4979,757.5838
71.5199,733.6494
71.5419,730.1436
71.5639,730
71.5859,734.4051
71.6079,685.8674
71.6299,707.1683
71.6519,699.9031
71.6739,678.5358
71.6959,696.7922
71.7179,682.7236
71.7399,700.3742
71.7619,723.5252
71.7839,739.8664
71.8059,743.2166
71.8279,796.8477
71.8499,725.8306
71.8719,685.4286
71.8939,673.6993
71.9159,702.2344
71.9379,676.6893
71.9599,672.3702
71.9819,664.2615
72.0039,654.0406
72.0259,693
72.0479,697.0351
72.0699,717.6085
72.0919,684.8139
72.1139,645.4642
72.1359,665.8503
72.1579,699.7875
72.1799,683.6387
72.2019,688.0266
72.2239,695
72.2459,707.2382
72.2679,726.4426
72.2899,678.0974
72.3119,709.3767
72.3339,766.8473
72.3559,727.9084
72.3779,697.7068
72.3999,690.133
72.4219,704.0704
72.4439,681.3793
72.4659,716.9814
72.4879,703.5219
72.5099,663.2742
72.5319,668.7058
72.5539,704.2183
72.5759,679.6112
72.5979,638.6607
72.6199,670.027
72.6419,704.761
72.6639,680.6684
72.6859,655.5398
72.7079,653.0315
72.7299,621.1894
72.7519,604.9087
72.7739,631.0739
72.7959,657.597
72.8179,647.2269
72.8399,632.9081
72.8619,626.6853
72.8839,613.7256
72.9059,630.0287
72.9279,674.5391
72.9499,663.4186
72.9719,686.3219
72.9939,684.9674
73.0159,657.0013
73.0379,633.0785
73.0599,668.9763
73.0819,687.7168
73.1039,615.0889
73.1259,645.088
73.1479,651.4335
73.1699,650.8299
73.1919,669.1221
73.2139,680.3245
73.2359,633.8286
73.2579,648.8999
73.2799,614.4555
73.3019,649.666
73.3239,649.4798
73.3459,620.342
73.3679,630.0257
73.3899,688.8893
73.4119,672.5692
73.4339,617.9318
73.4559,676.878
73.4779,642.6015
73.4999,654.2552
73.5219,609.7559
73.5439,661.6213
73.5659,632.3961
73.5879,648.9917
73.6099,639.1181
73.6319,650.9759
73.6539,728.0526
73.6759,649.2698
73.6979,636.7071
73.7199,661.0952
73.7419,643.9297
73.7639,714.869
73.7859,686.4405
73.8079,690.2448
73.8299,691.4611
73.8519,678.1505
73.8739,624.0267
73.8959,641.3727
73.9179,652.597
73.9399,666.5264
73.9619,645.0031
73.9839,662.8962
74.0059,662.9618
74.0279,671.584
74.0499,651.3017
74.0719,641.1772
74.0939,679.546
74.1159,694.563
74.1379,641.5574
74.1599,626.6809
74.1819,629.6451
74.2039,663.8058
74.2259,700.7618
74.2479,672.7905
74.2699,654.9201
74.2919,635.1426
74.3139,625.0106
74.3359,620.9486
74.3579,639.9842
74.3799,650.1217
74.4019,664.3686
74.4239,647.9345
74.4459,646.7464
74.4679,635.3184
74.4899,636.131
74.5119,632.8233
74.5339,615.6962
74.5559,647.637
74.5779,634.4224
74.5999,624.9014
74.6219,639.8456
74.6439,640.179
74.6659,609.1059
74.6879,599.6673
74.7099,661.4931
74.7319,663.9835
74.7539,607.9436
74.7759,634.7526
74.7979,633.3302
74.8199,656.7663
74.8419,647.7962
74.8639,634.1504
74.8859,653.2912
74.9079,649.2084
74.9299,656.239
74.9519,672.185
74.9739,636.5336
74.9959,660.3764
75.0179,696.3483
75.0399,651.9244
75.0619,672.0976
75.0839,647.2584
75.1059,652.0188
75.1279,600.687
75.1499,628.6315
75.1719,641.0758
75.1939,661.7287
75.2159,675.8177
75.2379,674.236
75.2599,667.4646
75.2819,666.0541
75.3039,638.2117
75.3259,622.4424
75.3479,629.8624
75.3699,641.9411
75.3919,672.0517
75.4139,678.1541
75.4359,637.5981
75.4579,683.6546
75.4799,633.2262
75.5019,639.2716
75.5239,666.6738
75.5459,631.242
75.5679,657.0169
75.5899,691.708
75.6119,699.7361
75.6339,714.4354
75.6559,694.3939
75.6779,703.3373
75.6999,707.1287
75.7219,684.6044
75.7439,663.9755
75.7659,737.7837
75.7879,741.801
75.8099,758.2409
75.8319,774.4453
75.8539,829.5577
75.8759,886.0006
75.8979,1010.9921
75.9199,1201.8938
75.9419,1545.3414
75.9639,2083.9746
75.9859,2530.6122
76.0079,2650.8884
76.0299,2335.8964
76.0519,1793.9528
76.0739,1381.3543
76.0959,1167.7181
76.1179,1100.3039
76.1399,1235.9851
76.1619,1482.5732
76.1839,1633.1808
76.2059,1651.1556
76.2279,1460.6966
76.2499,1186.7151
76.2719,948.1857
76.2939,809.5383
76.3159,765.382
76.3379,732.4539
76.3599,699.4218
76.3819,679.4276
76.4039,690.9108
76.4259,688.693
76.4479,644.5351
76.4699,609.3686
76.4919,611.1948
76.5139,614.1947
76.5359,655.963
76.5579,637.1776
76.5799,655.2658
76.6019,627.1628
76.6239,666.9155
76.6459,669.221
76.6679,615.064
76.6899,638.2904
76.7119,626.9305
76.7339,612.7001
76.7559,629.4662
76.7779,621.7108
76.7999,645.7903
76.8219,655.4189
76.8439,670.7346
76.8659,644.0883
76.8879,626.1956
76.9099,614.5899
76.9319,635.5616
76.9539,629.3195
76.9759,619.0766
76.9979,595.3843
77.0199,616.8399
77.0419,582.7608
77.0639,628.0165
77.0859,637.6765
77.1079,628.3392
77.1299,653.4377
77.1519,602.4854
77.1739,603.0503
77.1959,620.3812
77.2179,644.3391
77.2399,620.8009
77.2619,615.583
77.2839,609.9967
77.3059,639.0767
77.3279,638.2201
77.3499,622.4308
77.3719,643.7728
77.3939,641.3707
77.4159,633.9605
77.4379,616.8054
77.4599,631.7194
77.4819,655.825
77.5039,658.9338
77.5259,666.4186
77.5479,634.1452
77.5699,656.7758
77.5919,645.5946
77.6139,620.4584
77.6359,642.8672
77.6579,625.7992
77.6799,605.7139
77.7019,614.7671
77.7239,634.066
77.7459,644.2594
77.7679,626.6607
77.7899,631.9834
77.8119,633.7023
77.8339,641.2218
77.8559,679.7928
77.8779,653.0373
77.8999,651.9027
77.9219,643.4285
77.9439,642.3577
77.9659,660.0913
77.9879,657.239
78.0099,635.0389
78.0319,629.8676
78.0539,670.9136
78.0759,702.3169
78.0979,766.5344
78.1199,816.1609
78.1419,883.095
78.1639,1040.5425
78.1859,1151.8705
78.2079,1147.9359
78.2299,1001.5562
78.2519,893.2383
78.2739,851.9771
78.2959,799.9908
78.3179,769.0845
78.3399,816.6593
78.3619,871.0002
78.3839,911.8375
78.4059,916.7049
78.4279,872.8979
78.4499,793.0063
78.4719,747.6124
78.4939,715.5662
78.5159,731.0867
78.5379,680.0949
78.5599,666.6638
78.5819,642.7333
78.6039,633.5944
78.6259,615.0884
78.6479,634.1408
78.6699,626.4188
78.6919,618.8938
78.7139,614.5467
78.7359,643.7711
78.7579,664.8703
78.7799,621.0897
78.8019,595.9251
78.8239,623.5931
78.8459,623.1888
78.8679,664.7721
78.8899,639.1119
78.9119,661.3748
78.9339,656.0826
78.9559,618.0558
78.9779,657.632
78.9999,624.9708
79.0219,663.6633
79.0439,601.6693
79.0659,635
79.0879,635.5782
79.1099,643.1691
79.1319,642.8691
79.1539,627.1477
79.1759,660.5142
79.1979,652.988
79.2199,633.133
79.2419,666.6253
79.2639,647.0052
79.2859,614.0974
79.3079,616.8529
79.3299,613.3945
79.3519,632.4616
79.3739,628.8565
79.3959,635.2444
79.4179,633.4336
79.4399,630.5719
79.4619,644.6874
79.4839,643.4232
79.5059,638.5626
79.5279,655.7733
79.5499,652.3216
79.5719,637.866
79.5939,614.9392
79.6159,644.0179
79.6379,645.161
79.6599,614.8245
79.6819,610.9793
79.7039,616.3285
79.7259,633.5733
79.7479,654.6713
79.7699,663.3873
79.7919,666.0366
79.8139,661.8847
79.8359,645.4116
79.8579,657.0345
79.8799,652.6754
79.9019,654.1221
79.9239,643.4265
79.9459,628.8614
79.9679,659.0681
79.9899,676.5427
