Pos. [°2?],Intensity [Counts]
6.4219,5535.8879
6.4439,5531.8648
6.4659,5473.4641
6.4879,5492.5988
6.5099,5485.4336
6.5319,5456.9897
6.5539,5455.7257
6.5759,5410.8795
6.5979,5404.1534
6.6199,5403.1106
6.6419,5383.5762
6.6639,5391.0506
6.6859,5333.8702
6.7079,5374.1652
6.7299,5326.1258
6.7519,5290.5044
6.7739,5267.1072
6.7959,5293.0325
6.8179,5277.8879
6.8399,5391.2306
6.8619,5208.3156
6.8839,5139.7242
6.9059,5127.8761
6.9279,5221.0059
6.9499,5181.3982
6.9719,5204.5856
6.9939,5219.3835
7.0159,5103.823
7.0379,5214.4238
7.0599,5168.5142
7.0819,5084.6637
7.1039,5150.7473
7.1259,5324.6244
7.1479,5092.7654
7.1699,5199.9587
7.1919,5145.496
7.2139,5166.4395
7.2359,5159.703
7.2579,5046.9036
7.2799,5039.0457
7.3019,5048.6657
7.3239,5143.9494
7.3459,5009.2212
7.3679,5155.7625
7.3899,5086.5752
7.4119,5060.6445
7.4339,5080.9036
7.4559,5025.8446
7.4779,4930.2094
7.4999,4889.0737
7.5219,4876.5683
7.5439,4863.323
7.5659,4875.3422
7.5879,4876.6101
7.6099,4860.761
7.6319,4827.8864
7.6539,4898.0522
7.6759,5042.1902
7.6979,4814.2291
7.7199,4760.4007
7.7419,4780.2301
7.7639,4808.7345
7.7859,4782.1102
7.8079,4932.3495
7.8299,4826.5536
7.8519,4780.0432
7.8739,4699.7286
7.8959,4741.0103
7.9179,4841.59
7.9399,4877.8052
7.9619,4662.2763
7.9839,4720.1653
8.0059,4796.9822
8.0279,4649.9479
8.0499,4616.765
8.0719,4656.2183
8.0939,4665.8663
8.1159,4692.9366
8.1379,4732.469
8.1599,4683.7021
8.1819,4681.4208
8.2039,4668.646
8.2259,4714.589
8.2479,4704.026
8.2699,4675.8761
8.2919,4629.2861
8.3139,4536.4021
8.3359,4505.3805
8.3579,4565.2282
8.3799,4617.4312
8.4019,4589.6873
8.4239,4509.4719
8.4459,4518.2734
8.4679,4507.1224
8.4899,4535.4651
8.5119,4524.9474
8.5339,4402.115
8.5559,4372.6834
8.5779,4420.0108
8.5999,4480.5797
8.6219,4413.4041
8.6439,4522.4136
8.6659,4416.0619
8.6879,4374.2635
8.7099,4512.8093
8.7319,4386.8273
8.7539,4203.5555
8.7759,4324.0138
8.7979,4397.2921
8.8199,4383.0044
8.8419,4320.941
8.8639,4268.7168
8.8859,4229.4936
8.9079,4299.152
8.9299,4285.5929
8.9519,4321.0895
8.9739,4243.1366
8.9959,4192.9159
9.0179,4100.174
9.0399,4239.2597
9.0619,4162.5634
9.0839,4164.735
9.1059,4063.6588
9.1279,3948.5132
9.1499,4120.829
9.1719,4036.294
9.1939,4064.7139
9.2159,4174.6312
9.2379,4110.0846
9.2599,4085.7713
9.2819,3991.0374
9.3039,4013.1725
9.3259,3972.5841
9.3479,3987.2095
9.3699,4060.4149
9.3919,4035.4439
9.4139,3946.0954
9.4359,3945.1633
9.4579,4001.0531
9.4799,3996.6961
9.5019,3943.5664
9.5239,3992.4071
9.5459,3987.23
9.5679,3897.1627
9.5899,3902.469
9.6119,3912.3997
9.6339,3929.8859
9.6559,3941.1977
9.6779,3919.3677
9.6999,3853.8098
9.7219,3873.6814
9.7439,3775.8166
9.7659,3807.065
9.7879,3965.2611
9.8099,4006.0452
9.8319,3958.2743
9.8539,3915.295
9.8759,3932.376
9.8979,3904.1141
9.9199,3967.1283
9.9419,3950.0265
9.9639,3942.7311
9.9859,3909.2389
10.0079,3967.7602
10.0299,3980.7
10.0519,3963.9455
10.0739,4081.2498
10.0959,4042.9252
10.1179,4043.1771
10.1399,4176.9834
10.1619,4270.8643
10.1839,4413.4927
10.2059,4476.0295
10.2279,4474.4307
10.2499,4676.0474
10.2719,4810.1431
10.2939,4748.4414
10.3159,4485.898
10.3379,4307.0167
10.3599,4115.669
10.3819,3965.1445
10.4039,3790.6793
10.4259,3683.0147
10.4479,3646.6195
10.4699,3658.412
10.4919,3526.4773
10.5139,3540.1239
10.5359,3583.7473
10.5579,3572.1445
10.5799,3503.1651
10.6019,3525.8909
10.6239,3492.2291
10.6459,3435.4159
10.6679,3336.2074
10.6899,3409.3767
10.7119,3417.0265
10.7339,3411.5801
10.7559,3379.6308
10.7779,3367.823
10.7999,3334.7704
10.8219,3471.9706
10.8439,3442.292
10.8659,3281.9763
10.8879,3366.181
10.9099,3395.5221
10.9319,3406.9405
10.9539,3342.771
10.9759,3454.3451
10.9979,3471.5909
11.0199,3451.7364
11.0419,3289.1327
11.0639,3232.8157
11.0859,3347.3559
11.1079,3286.4381
11.1299,3312.6352
11.1519,3244.9474
11.1739,3205.9616
11.1959,3214.061
11.2179,3291.7236
11.2399,3206.6666
11.2619,3146.9685
11.2839,3166.1362
11.3059,3207.9823
11.3279,3216.0866
11.3499,3272.7749
11.3719,3288.3524
11.3939,3214.1406
11.4159,3242.1352
11.4379,3194.8082
11.4599,3143.9189
11.4819,3126.585
11.5039,3142.677
11.5259,3214.8103
11.5479,3235.5132
11.5699,3111.7609
11.5919,3054.4018
11.6139,3149.6047
11.6359,3139.0856
11.6579,3161.4032
11.6799,3142.5383
11.7019,3145.3275
11.7239,3164.2266
11.7459,3111.6519
11.7679,3086.9174
11.7899,3007.3923
11.8119,3036.5222
11.8339,3172.8703
11.8559,3124.0313
11.8779,3063.2478
11.8999,3060.0885
11.9219,3114.9627
11.9439,3081.8834
11.9659,2996.5605
11.9879,3058.2248
12.0099,3162.1043
12.0319,3125.0751
12.0539,3044.0639
12.0759,3069.6284
12.0979,3116.6726
12.1199,3135.2414
12.1419,3159.118
12.1639,3237.972
12.1859,3265.8289
12.2079,3206.6946
12.2299,3182.2802
12.2519,3126.3638
12.2739,3028.5879
12.2959,3117.009
12.3179,3117.8603
12.3399,2946.8499
12.3619,3079.7465
12.3839,3018.0225
12.4059,3071.355
12.4279,3008.4527
12.4499,3038.3471
12.4719,2983.7325
12.4939,2926.1681
12.5159,3000.798
12.5379,2970.9754
12.5599,2970.5207
12.5819,2940.7581
12.6039,2922.2119
12.6259,2897.4749
12.6479,2878.8407
12.6699,2971.6618
12.6919,2916.3274
12.7139,3061.5448
12.7359,2885.2656
12.7579,2993.885
12.7799,3052.4592
12.8019,3037.6805
12.8239,3148.6445
12.8459,3085.2743
12.8679,3055.7325
12.8899,2997.1858
12.9119,2945.5449
12.9339,3101.1622
12.9559,3016.7286
12.9779,2969.0285
12.9999,2989.4995
13.0219,2987.292
13.0439,2929.9056
13.0659,2922.6155
13.0879,2942.3629
13.1099,2959.9331
13.1319,2917.4484
13.1539,2968.3245
13.1759,2943.4553
13.1979,2994.5291
13.2199,3065.4454
13.2419,3045.9411
13.2639,3092.4454
13.2859,3042.3452
13.3079,3078.4238
13.3299,3058.29
13.3519,3065.0473
13.3739,3101.7757
13.3959,3037.4626
13.4179,3039.8732
13.4399,3049.1902
13.4619,3020.7758
13.4839,3040.8584
13.5059,3086.5753
13.5279,3124.3525
13.5499,3120.8525
13.5719,3120.5797
13.5939,3149.6637
13.6159,3154.882
13.6379,3172.5959
13.6599,3175.8505
13.6819,3224.5665
13.7039,3265.0241
13.7259,3241.1111
13.7479,3262.9101
13.7699,3337.4111
13.7919,3344.3407
13.8139,3395.5429
13.8359,3415.7025
13.8579,3424.5428
13.8799,3503.1594
13.9019,3608.3118
13.9239,3724.2749
13.9459,3707.6872
13.9679,3743.859
13.9899,3783.2488
14.0119,3888.1476
14.0339,3984.7552
14.0559,4059.2744
14.0779,4135.9204
14.0999,4210.0443
14.1219,4444.5027
14.1439,4621.4175
14.1659,4798.6521
14.1879,4935.0812
14.2099,5040.596
14.2319,5228.1649
14.2539,5398.7878
14.2759,5359.1504
14.2979,5740.1803
14.3199,5732.1061
14.3419,5812.1712
14.3639,5720.7683
14.3859,5572.3568
14.4079,5277.2165
14.4299,4992.3164
14.4519,4766.5445
14.4739,4322.8669
14.4959,4092.165
14.5179,3962.2496
14.5399,3744.8967
14.5619,3731.2231
14.5839,3554.9795
14.6059,3200.4278
14.6279,3296.5554
14.6499,3089.1682
14.6719,3138.429
14.6939,2944.3018
14.7159,2928.9961
14.7379,3003.2595
14.7599,2936.3411
14.7819,2858.996
14.8039,2813.5782
14.8259,2810.4326
14.8479,2745.9744
14.8699,2687.0264
14.8919,2615.389
14.9139,2728.6815
14.9359,2786.3701
14.9579,2679.467
14.9799,2624.8176
15.0019,2649.3747
15.0239,2680.2443
15.0459,2642.0698
15.0679,2635.3053
15.0899,2627.1072
15.1119,2610.3092
15.1339,2613.6313
15.1559,2605.6829
15.1779,2599.6677
15.1999,2600.6932
15.2219,2616.2636
15.2439,2609.1961
15.2659,2576.2744
15.2879,2605.8712
15.3099,2551.2831
15.3319,2465.2669
15.3539,2467.2066
15.3759,2505.3116
15.3979,2491.1593
15.4199,2494.9488
15.4419,2512.8555
15.4639,2522.5177
15.4859,2461.8927
15.5079,2480.6643
15.5299,2505.1534
15.5519,2483.2429
15.5739,2453.1278
15.5959,2460.8127
15.6179,2388.5623
15.6399,2460.1
15.6619,2491.1238
15.6839,2485.7827
15.7059,2442.0746
15.7279,2464.5532
15.7499,2534.9843
15.7719,2549.0138
15.7939,2478.463
15.8159,2519.7046
15.8379,2548.2065
15.8599,2508.6194
15.8819,2485.119
15.9039,2457.2841
15.9259,2531.6048
15.9479,2474.3047
15.9699,2553.537
15.9919,2594.2522
16.0139,2518.7865
16.0359,2525.8452
16.0579,2554.8938
16.0799,2723.5621
16.1019,2782.4366
16.1239,2775.3613
16.1459,2715.0078
16.1679,2563.6616
16.1899,2406.5161
16.2119,2461.1667
16.2339,2414.293
16.2559,2418.7832
16.2779,2430.7758
16.2999,2363.4345
16.3219,2307.8702
16.3439,2286.3275
16.3659,2305.0364
16.3879,2335.9896
16.4099,2288.467
16.4319,2255.036
16.4539,2392.2478
16.4759,2364.8288
16.4979,2296.3973
16.5199,2310.0088
16.5419,2253.5221
16.5639,2233.5276
16.5859,2269.7258
16.6079,2337.2482
16.6299,2263.9066
16.6519,2247.854
16.6739,2244.6056
16.6959,2192.3791
16.7179,2215.0501
16.7399,2208.8305
16.7619,2278.2724
16.7839,2286.4159
16.8059,2298.8545
16.8279,2310.3888
16.8499,2233.0089
16.8719,2239.0605
16.8939,2239.9292
16.9159,2253.4307
16.9379,2266.9498
16.9599,2263.5506
16.9819,2236.2743
17.0039,2248.0085
17.0259,2345.5733
17.0479,2303.8627
17.0699,2246.3609
17.0919,2241.4664
17.1139,2230.2184
17.1359,2268.9665
17.1579,2232.5408
17.1799,2191.4291
17.2019,2222.1879
17.2239,2300.7852
17.2459,2274.2742
17.2679,2267.9961
17.2899,2290.6263
17.3119,2352.9618
17.3339,2383.8623
17.3559,2239.6123
17.3779,2192.0945
17.3999,2219.5674
17.4219,2214.2773
17.4439,2298.0533
17.4659,2241.5691
17.4879,2159.3362
17.5099,2100.7964
17.5319,2194.6064
17.5539,2281.6274
17.5759,2207.6886
17.5979,2187.532
17.6199,2207.8904
17.6419,2189.9557
17.6639,2224.3167
17.6859,2185.7797
17.7079,2164.5383
17.7299,2203.4189
17.7519,2240.559
17.7739,2222.4867
17.7959,2221.9764
17.8179,2192.6991
17.8399,2191.2699
17.8619,2155.6165
17.8839,2191.2926
17.9059,2166.7109
17.9279,2161.1937
17.9499,2134.4523
17.9719,2174.6756
17.9939,2127.2389
18.0159,2186.8526
18.0379,2107.0441
18.0599,2191.9205
18.0819,2115.8544
18.1039,2121.9911
18.1259,2116.5094
18.1479,2150.4724
18.1699,2061.6757
18.1919,2200.6577
18.2139,2136.0491
18.2359,2109.9337
18.2579,2142.762
18.2799,2110.1977
18.3019,2122.2331
18.3239,2138.8413
18.3459,2179.8928
18.3679,2140.8098
18.3899,2168.3559
18.4119,2140.0413
18.4339,2150.7611
18.4559,2152.4222
18.4779,2052.3707
18.4999,2069.0754
18.5219,2187.06
18.5439,2190.9243
18.5659,2211.2212
18.5879,2162.5086
18.6099,2043.6834
18.6319,2058.8894
18.6539,2067.175
18.6759,2087.7419
18.6979,2074.9999
18.7199,2078.3739
18.7419,2169.1042
18.7639,2129.9661
18.7859,2113.0275
18.8079,2076.5751
18.8299,2061.9027
18.8519,2102.3225
18.8739,2107.7699
18.8959,2081.1518
18.9179,2061.006
18.9399,2112.6156
18.9619,2102.8229
18.9839,2049.2477
19.0059,2002.1917
19.0279,2024.2169
19.0499,2043.9704
19.0719,2023.796
19.0939,2033.1003
19.1159,2107.1575
19.1379,2110.7718
19.1599,2031.2329
19.1819,2037.2243
19.2039,2019.11
19.2259,2030.6992
19.2479,2129.2327
19.2699,2116.5033
19.2919,2149.5281
19.3139,2139.6735
19.3359,2115.1716
19.3579,2052.6223
19.3799,2072.7189
19.4019,2080.1003
19.4239,2007.2786
19.4459,2040.8447
19.4679,2039.3849
19.4899,2039.2065
19.5119,2067.7955
19.5339,2041.3834
19.5559,2015.9336
19.5779,2063.9735
19.5999,2039.8348
19.6219,2054.239
19.6439,2048.5197
19.6659,2098.5743
19.6879,2090.0442
19.7099,2060.1396
19.7319,2040.6017
19.7539,2162.7229
19.7759,2132.7694
19.7979,2011.5141
19.8199,2046.2877
19.8419,2021.7433
19.8639,2034.7866
19.8859,2020.0442
19.9079,2070.0467
19.9299,2076.8605
19.9519,2157.6415
19.9739,2064.8192
19.9959,2117.9099
20.0179,2041.3098
20.0399,2101.611
20.0619,2004.5812
20.0839,2065.6003
20.1059,2049.2015
20.1279,2024.977
20.1499,2078.3538
20.1719,1991.2116
20.1939,2105.6833
20.2159,2057.5398
20.2379,2060.0894
20.2599,2020.734
20.2819,2018.5487
20.3039,2057.9101
20.3259,2083.5554
20.3479,2016.1166
20.3699,2065.2556
20.3919,2068.9873
20.4139,2124.8585
20.4359,2158.6966
20.4579,2121.5673
20.4799,2129.7611
20.5019,2216.1565
20.5239,2270.581
20.5459,2224.8231
20.5679,2283.7807
20.5899,2306.7857
20.6119,2320.115
20.6339,2313.0335
20.6559,2352.6436
20.6779,2358.8259
20.6999,2286.8843
20.7219,2230.9666
20.7439,2206.3731
20.7659,2178.2035
20.7879,2145.9547
20.8099,2108.6283
20.8319,2112.3437
20.8539,2137.1436
20.8759,2132.8967
20.8979,2093.1907
20.9199,2117.7027
20.9419,2116.6046
20.9639,2019.0824
20.9859,2048.6737
21.0079,2092.3849
21.0299,2125.2626
21.0519,2092.8249
21.0739,2130.7376
21.0959,2199.326
21.1179,2134.4433
21.1399,2153.509
21.1619,2170.9007
21.1839,2213.5001
21.2059,2272.8673
21.2279,2244.6853
21.2499,2226.9636
21.2719,2267.6549
21.2939,2195.3627
21.3159,2197.471
21.3379,2117.5161
21.3599,2129.8221
21.3819,2196.1319
21.4039,2120.106
21.4259,2067.9881
21.4479,2115.9224
21.4699,2110.7699
21.4919,2101.8456
21.5139,2100.0934
21.5359,2034.7595
21.5579,2011.3077
21.5799,2073.212
21.6019,2058.8407
21.6239,2071.5526
21.6459,2081.8034
21.6679,2126.6682
21.6899,2011.241
21.7119,2060.0344
21.7339,2063.5045
21.7559,2110.6597
21.7779,2061.7592
21.7999,2142.2123
21.8219,2100.4827
21.8439,2069.0899
21.8659,2049.587
21.8879,2049.9283
21.9099,2092.2715
21.9319,2172.7773
21.9539,2137.6065
21.9759,2061.388
21.9979,2108.469
22.0199,2104.4857
22.0419,2109.6913
22.0639,2144.879
22.0859,2099.2507
22.1079,2082.2847
22.1299,2082.2567
22.1519,2095.8388
22.1739,2093.2496
22.1959,2064.186
22.2179,2150.4947
22.2399,2153.7221
22.2619,2107.4751
22.2839,2173
22.3059,2167.4149
22.3279,2180.4883
22.3499,2197.3391
22.3719,2201.155
22.3939,2281.7611
22.4159,2256.0003
22.4379,2264.2677
22.4599,2355.4808
22.4819,2291.101
22.5039,2263.0012
22.5259,2336.1357
22.5479,2385.6157
22.5699,2450.3658
22.5919,2472.5443
22.6139,2493.24
22.6359,2474.26
22.6579,2532.4988
22.6799,2664.4756
22.7019,2690.0393
22.7239,2677.913
22.7459,2703.7955
22.7679,2807.4339
22.7899,2840.4601
22.8119,2934.0312
22.8339,3009.237
22.8559,3069.8202
22.8779,3158.8458
22.8999,3244.8359
22.9219,3338.242
22.9439,3387.0487
22.9659,3523.486
22.9879,3616.3452
23.0099,3770.8253
23.0319,3851.4509
23.0539,3933.3276
23.0759,4108.5131
23.0979,4095.8003
23.1199,4092.2537
23.1419,4096.6323
23.1639,4081.26
23.1859,3979.637
23.2079,3846.6979
23.2299,3901.4151
23.2519,3749.7696
23.2739,3830.2254
23.2959,3696.8493
23.3179,3737.6963
23.3399,3584.5263
23.3619,3590.7808
23.3839,3657.6417
23.4059,3594.5102
23.4279,3530.5176
23.4499,3563.5871
23.4719,3560.9615
23.4939,3483.8182
23.5159,3543.8907
23.5379,3420.1975
23.5599,3355.101
23.5819,3488.9557
23.6039,3456.5894
23.6259,3448.8645
23.6479,3549.0471
23.6699,3505.3332
23.6919,3432.1532
23.7139,3370.9324
23.7359,3505.4571
23.7579,3446.533
23.7799,3484.792
23.8019,3478.6303
23.8239,3475.6199
23.8459,3484.0326
23.8679,3531.9002
23.8899,3509.0855
23.9119,3504.8231
23.9339,3535.3107
23.9559,3531.7321
23.9779,3569.3983
23.9999,3630.5952
24.0219,3814.1685
24.0439,3988.2082
24.0659,4157.1056
24.0879,4467.4339
24.1099,4931.1158
24.1319,5633.5013
24.1539,6831.8095
24.1759,8451.6759
24.1979,10717.1037
24.2199,13431.632
24.2419,16046.0098
24.2639,17049.4772
24.2859,14867.9983
24.3079,11503.2832
24.3299,8685.9025
24.3519,6133.5831
24.3739,4636.4763
24.3959,4011.3495
24.4179,3855.4061
24.4399,3825.1916
24.4619,3727.5691
24.4839,3581.1954
24.5059,3452.7609
24.5279,3434.0281
24.5499,3367.4226
24.5719,3288.3982
24.5939,3289.9381
24.6159,3330.7021
24.6379,3227.395
24.6599,3263.9599
24.6819,3227.7313
24.7039,3234.2155
24.7259,3226.5545
24.7479,3128.3951
24.7699,3144.0709
24.7919,3168.9037
24.8139,3189.7562
24.8359,3111.3582
24.8579,3117.5428
24.8799,3156.9106
24.9019,3179.3894
24.9239,3121.3106
24.9459,3048.4964
24.9679,3014.2566
24.9899,3043.943
25.0119,2993.1828
25.0339,3004.0826
25.0559,3013.1981
25.0779,2961.9311
25.0999,2922.3288
25.1219,2907.0098
25.1439,2865.8116
25.1659,2829.8583
25.1879,2846.2247
25.2099,2916.947
25.2319,2829.4762
25.2539,2798.1179
25.2759,2768.9331
25.2979,2762.2597
25.3199,2821.3412
25.3419,2796.3459
25.3639,2683.3852
25.3859,2789.8152
25.4079,2803.162
25.4299,2704.8441
25.4519,2909.9172
25.4739,2800.0906
25.4959,2873.7834
25.5179,2992.9944
25.5399,3199.8982
25.5619,3407.0884
25.5839,3377.7956
25.6059,3450.2036
25.6279,3475.6903
25.6499,3439.5846
25.6719,3209.7843
25.6939,3039.0501
25.7159,2982.0234
25.7379,2857.8286
25.7599,2747.4911
25.7819,2701.1256
25.8039,2627.9643
25.8259,2686.472
25.8479,2696.9513
25.8699,2677.1434
25.8919,2657.6683
25.9139,2709.2576
25.9359,2720.2317
25.9579,2726.3008
25.9799,2692.4268
26.0019,2696.6185
26.0239,2610.1427
26.0459,2551.8016
26.0679,2590.0073
26.0899,2541.1592
26.1119,2512.2458
26.1339,2550.4063
26.1559,2574.9999
26.1779,2572.4425
26.1999,2549.607
26.2219,2552.1919
26.2439,2516.8051
26.2659,2494.8103
26.2879,2544.3762
26.3099,2592.6461
26.3319,2540.807
26.3539,2508.708
26.3759,2560.4893
26.3979,2616.7602
26.4199,2506.7961
26.4419,2468.6697
26.4639,2458.1169
26.4859,2505.2244
26.5079,2505.1337
26.5299,2525.6117
26.5519,2535.3938
26.5739,2553.0718
26.5959,2579.3914
26.6179,2519.286
26.6399,2558.0916
26.6619,2583.827
26.6839,2634.4942
26.7059,2541.2466
26.7279,2603.6939
26.7499,2667.0886
26.7719,2686.974
26.7939,2883.4124
26.8159,2983.7612
26.8379,3027.4789
26.8599,3040.0398
26.8819,2912.4039
26.9039,2830.1577
26.9259,2648.1943
26.9479,2672.6992
26.9699,2592.8897
26.9919,2559.0211
27.0139,2575.6284
27.0359,2567.0752
27.0579,2644.8544
27.0799,2606.5234
27.1019,2517
27.1239,2508.5119
27.1459,2313.832
27.1679,2400.3923
27.1899,2401.8052
27.2119,2358.478
27.2339,2418.9891
27.2559,2379.9258
27.2779,2439.9443
27.2999,2594.6176
27.3219,2618.6657
27.3439,2645.5179
27.3659,2718.1031
27.3879,2667.0568
27.4099,2780.1769
27.4319,2778.3778
27.4539,2941.7173
27.4759,3124.0634
27.4979,3009.0936
27.5199,2726.765
27.5419,2668.9287
27.5639,2485.0384
27.5859,2489.2929
27.6079,2435.2242
27.6299,2443.177
27.6519,2424.6199
27.6739,2439.1506
27.6959,2480.6302
27.7179,2515.0553
27.7399,2522.8536
27.7619,2418.2597
27.7839,2459.2385
27.8059,2468.5162
27.8279,2458.8294
27.8499,2476.9814
27.8719,2481.4409
27.8939,2482.8467
27.9159,2548.7632
27.9379,2630.1152
27.9599,2639.465
27.9819,2661.1369
28.0039,2798.257
28.0259,2983.493
28.0479,3052.7187
28.0699,3048.0944
28.0919,3037.6435
28.1139,3099.0199
28.1359,3073.4068
28.1579,3044.0286
28.1799,3000.8607
28.2019,2978.2891
28.2239,3023.977
28.2459,3069.7031
28.2679,2952.8108
28.2899,2898.2301
28.3119,2874.228
28.3339,2821.4247
28.3559,2758.3371
28.3779,2629.0489
28.3999,2566.6356
28.4219,2591.9372
28.4439,2663.4834
28.4659,2582.1797
28.4879,2592.1284
28.5099,2600.1849
28.5319,2633.0974
28.5539,2636.6411
28.5759,2674.3408
28.5979,2701.7434
28.6199,2843.5028
28.6419,2796.3332
28.6639,2933.0903
28.6859,2864.047
28.7079,2996.7161
28.7299,3118.6905
28.7519,3200.127
28.7739,3204.9626
28.7959,3288.8438
28.8179,3516.086
28.8399,3616.952
28.8619,3736.1211
28.8839,3833.1561
28.9059,3965.9482
28.9279,4098.1195
28.9499,4127.7426
28.9719,4230.6637
28.9939,4023.5723
29.0159,3996.5949
29.0379,3797.8192
29.0599,3837.2503
29.0819,3655.4148
29.1039,3549.1003
29.1259,3353.3273
29.1479,3288.0776
29.1699,3232.8642
29.1919,3168.9955
29.2139,3138.2145
29.2359,3160.4438
29.2579,3091.0471
29.2799,3017.2189
29.3019,2913.8811
29.3239,2949.6504
29.3459,2929.0677
29.3679,2896.3073
29.3899,2959.3483
29.4119,3003.2436
29.4339,2937.5154
29.4559,2979.0339
29.4779,2930.1001
29.4999,2934.5505
29.5219,2983.2475
29.5439,2908.035
29.5659,2968.1831
29.5879,3004.6945
29.6099,2948.1091
29.6319,2936.3039
29.6539,2994.7879
29.6759,3096.6585
29.6979,3227.7162
29.7199,3342.1196
29.7419,3324.7314
29.7639,3213.7971
29.7859,3133.3274
29.8079,3064.1861
29.8299,2922.7145
29.8519,2816.3657
29.8739,2760.2546
29.8959,2622.0512
29.9179,2553.4337
29.9399,2529.6828
29.9619,2454.2545
29.9839,2399.9247
30.0059,2381.4906
30.0279,2368.7148
30.0499,2382.239
30.0719,2426.7661
30.0939,2361.0882
30.1159,2338.823
30.1379,2354.1456
30.1599,2307.1488
30.1819,2363.9265
30.2039,2446.1167
30.2259,2443.1061
30.2479,2457.4396
30.2699,2535.657
30.2919,2513.464
30.3139,2584.6551
30.3359,2541.8582
30.3579,2480.8396
30.3799,2546.8099
30.4019,2531.0904
30.4239,2632.2515
30.4459,2742.8498
30.4679,2842.1777
30.4899,2962.4821
30.5119,3019.6152
30.5339,3057.0532
30.5559,3123.2002
30.5779,3113.3835
30.5999,3107.1032
30.6219,3182.6265
30.6439,3296.0434
30.6659,3569.4069
30.6879,3506.1073
30.7099,4010.0628
30.7319,4381.1996
30.7539,4816.8693
30.7759,5284.6677
30.7979,5738.5801
30.8199,6186.7823
30.8419,6992.2424
30.8639,8582.299
30.8859,10513.7234
30.9079,13387.3464
30.9299,18527.1628
30.9519,27096.4275
30.9739,40454.3175
30.9959,60460.7021
31.0179,78289.774
31.0399,75873.6807
31.0619,56400.7095
31.0839,45259.6507
31.1059,36121.2215
31.1279,21082.249
31.1499,10449.056
31.1719,6571.2489
31.1939,5348.1047
31.2159,4790.8773
31.2379,4445.0346
31.2599,4179.3016
31.2819,4019.6898
31.3039,3800.3667
31.3259,3588.1953
31.3479,3430.5095
31.3699,3299.5513
31.3919,3200.7595
31.4139,3080.9248
31.4359,2957.3038
31.4579,2873.6781
31.4799,2775.9203
31.5019,2754.0796
31.5239,2697.1059
31.5459,2659.3619
31.5679,2597.507
31.5899,2554.3305
31.6119,2524.278
31.6339,2481.1209
31.6559,2499.7557
31.6779,2462.6852
31.6999,2470.6064
31.7219,2428.6723
31.7439,2395.4386
31.7659,2522.2335
31.7879,2544.4512
31.8099,2586.1979
31.8319,2578.05
31.8539,2693.677
31.8759,2840.4811
31.8979,3035.5846
31.9199,3183.8297
31.9419,3482.6478
31.9639,3942.7371
31.9859,3866.3603
32.0079,3682.7396
32.0299,3448.4448
32.0519,3327.8916
32.0739,3036.8596
32.0959,2816.2872
32.1179,2724.6695
32.1399,2633.7422
32.1619,2602.7463
32.1839,2501.9442
32.2059,2557.4033
32.2279,2605.3703
32.2499,2684.1791
32.2719,2749.7656
32.2939,2851.6374
32.3159,2902.3089
32.3379,2931.7061
32.3599,2854.7476
32.3819,2951.7938
32.4039,3147.1789
32.4259,3201.9624
32.4479,3537.1673
32.4699,4225.7471
32.4919,5383.4004
32.5139,6290.1331
32.5359,6929.6859
32.5579,8578.7598
32.5799,9087.1491
32.6019,7271.32
32.6239,5907.8206
32.6459,5427.32
32.6679,4332.6164
32.6899,3283.4586
32.7119,2680.6203
32.7339,2450.0512
32.7559,2505.9825
32.7779,2568.0313
32.7999,2511.4165
32.8219,2521.2889
32.8439,2442.7368
32.8659,2387.4975
32.8879,2385.3451
32.9099,2363.2457
32.9319,2323.7163
32.9539,2289.2949
32.9759,2294.8479
32.9979,2384.4828
33.0199,2325.3549
33.0419,2205.8261
33.0639,2210.1389
33.0859,2130.9025
33.1079,2131.5661
33.1299,2157.6016
33.1519,2138.4824
33.1739,2150.0039
33.1959,2153.7267
33.2179,2173.4454
33.2399,2141.9595
33.2619,2069.6891
33.2839,2043.0576
33.3059,2096.5567
33.3279,2109.6144
33.3499,2018.6605
33.3719,1973.2867
33.3939,2060.5824
33.4159,2042.2607
33.4379,1992.9135
33.4599,1996.8712
33.4819,1892.5748
33.5039,1864.9441
33.5259,1847.1572
33.5479,1881.0902
33.5699,1886.1798
33.5919,1870.3088
33.6139,1896.3334
33.6359,1902.8894
33.6579,1832.9486
33.6799,1892.3499
33.7019,1927.8525
33.7239,1898.6031
33.7459,1882.8171
33.7679,1893.0433
33.7899,1924.5399
33.8119,1928.3363
33.8339,1929.3687
33.8559,1851.4167
33.8779,1859.6815
33.8999,1882.5291
33.9219,1878.4513
33.9439,1899.9779
33.9659,1927.3098
33.9879,1935.3781
34.0099,1925.3451
34.0319,1877.1896
34.0539,1818.1631
34.0759,1900.8542
34.0979,1851.7757
34.1199,1808.1267
34.1419,1909.8587
34.1639,1885.7556
34.1859,1994.4723
34.2079,2116.8218
34.2299,2145.5099
34.2519,2375.3235
34.2739,2387.6902
34.2959,2354.8138
34.3179,2404.7618
34.3399,2305.1209
34.3619,2262.9877
34.3839,2068.4843
34.4059,2066.342
34.4279,2006.7782
34.4499,1970.7385
34.4719,1965.9378
34.4939,1876.2744
34.5159,1894.0525
34.5379,1884.9973
34.5599,1947.7059
34.5819,1921.0786
34.6039,1906.1197
34.6259,1959.1483
34.6479,1900.9591
34.6699,1871.7168
34.6919,1866.3864
34.7139,1886.7475
34.7359,1980.2318
34.7579,2071.9598
34.7799,2099.0953
34.8019,2059.3834
34.8239,2042.5172
34.8459,2044.0689
34.8679,2045.8007
34.8899,2012.5182
34.9119,1997.3671
34.9339,1976.8703
34.9559,1965.7624
34.9779,1988.7319
34.9999,1994.1722
35.0219,1952.7967
35.0439,1994.5506
35.0659,2076.3191
35.0879,2177.941
35.1099,2223.7092
35.1319,2310.2687
35.1539,2297.1875
35.1759,2293.8434
35.1979,2321.4159
35.2199,2225.1569
35.2419,2177.0148
35.2639,2148.0396
35.2859,2069.3361
35.3079,2048.0354
35.3299,1950.563
35.3519,1894.3766
35.3739,1883.701
35.3959,1896.5296
35.4179,1863.8297
35.4399,1876.6545
35.4619,1988.4782
35.4839,1973.7987
35.5059,1992.2509
35.5279,2009.472
35.5499,2068.366
35.5719,2094.8452
35.5939,2088.4985
35.6159,2162.16
35.6379,2052.2188
35.6599,1970.4158
35.6819,1897.3479
35.7039,1890.6746
35.7259,1863.2152
35.7479,1831.3741
35.7699,1718.1009
35.7919,1842.4739
35.8139,1835.9183
35.8359,1844.8049
35.8579,1801.8229
35.8799,1856.7568
35.9019,1890.2931
35.9239,1940.8187
35.9459,1870.2859
35.9679,1889.5999
35.9899,1848.2477
36.0119,1855.2967
36.0339,1747.4761
36.0559,1818.2782
36.0779,1609.9903
36.0999,1660.0558
36.1219,1758.1827
36.1439,1692.2404
36.1659,1701.3778
36.1879,1757.193
36.2099,1698.4149
36.2319,1684.1729
36.2539,1629.3276
36.2759,1701.2316
36.2979,1721.825
36.3199,1751.3483
36.3419,1815.3234
36.3639,1779.8932
36.3859,1761.6904
36.4079,1792.4473
36.4299,1799.7928
36.4519,1853.8405
36.4739,1800.529
36.4959,1779.3026
36.5179,1722.6018
36.5399,1737.1372
36.5619,1770.7425
36.5839,1780.1827
36.6059,1720.1464
36.6279,1686.587
36.6499,1664.8318
36.6719,1675.3822
36.6939,1688.9172
36.7159,1688.3749
36.7379,1711.5721
36.7599,1704.9432
36.7819,1716.9467
36.8039,1636.6414
36.8259,1628.893
36.8479,1690.4647
36.8699,1688.17
36.8919,1680.9332
36.9139,1720.9647
36.9359,1705.8941
36.9579,1672.5349
36.9799,1737.0224
37.0019,1739.0863
37.0239,1684.7054
37.0459,1690.3541
37.0679,1600.0217
37.0899,1573.6059
37.1119,1633.9102
37.1339,1649.5673
37.1559,1637.3171
37.1779,1596.4777
37.1999,1629.5985
37.2219,1575.159
37.2439,1575.5134
37.2659,1616.7444
37.2879,1613.3338
37.3099,1643.8467
37.3319,1684.5227
37.3539,1671.3156
37.3759,1633.2624
37.3979,1687.2392
37.4199,1701.8279
37.4419,1663.9556
37.4639,1630.4719
37.4859,1610.0619
37.5079,1606.1578
37.5299,1586.347
37.5519,1570.8653
37.5739,1547.0235
37.5959,1545.7827
37.6179,1618.2913
37.6399,1592.1105
37.6619,1551.8711
37.6839,1612.955
37.7059,1601.7551
37.7279,1518.0017
37.7499,1580.4849
37.7719,1513.7122
37.7939,1598.9842
37.8159,1591.0856
37.8379,1596.9203
37.8599,1595.8644
37.8819,1640.7217
37.9039,1611.1649
37.9259,1531.133
37.9479,1607.9361
37.9699,1621.0795
37.9919,1560.5762
38.0139,1575.4976
38.0359,1580.1059
38.0579,1512.4516
38.0799,1573.6335
38.1019,1511.2304
38.1239,1596.1677
38.1459,1592.7195
38.1679,1543.459
38.1899,1607.2771
38.2119,1564.6485
38.2339,1564.053
38.2559,1558.2238
38.2779,1603.0778
38.2999,1611.7815
38.3219,1579.363
38.3439,1620.8959
38.3659,1644.2861
38.3879,1647.3338
38.4099,1704.7635
38.4319,1814.5089
38.4539,1883.1313
38.4759,2032.9801
38.4979,2105.3245
38.5199,2159.8332
38.5419,2273.2845
38.5639,2225.0464
38.5859,2028.6664
38.6079,1998.0341
38.6299,2003.6724
38.6519,1900.8766
38.6739,1809.6469
38.6959,1789.9056
38.7179,1736.9172
38.7399,1628.1589
38.7619,1600.481
38.7839,1645.3172
38.8059,1603.8316
38.8279,1534.3362
38.8499,1563.5391
38.8719,1607.8762
38.8939,1623.0148
38.9159,1627.3712
38.9379,1603.2791
38.9599,1607.6417
38.9819,1622.3255
39.0039,1614.1524
39.0259,1594.5044
39.0479,1561.3027
39.0699,1543.5663
39.0919,1545.3628
39.1139,1575.8379
39.1359,1564.2
39.1579,1493.5868
39.1799,1510.4864
39.2019,1513.9026
39.2239,1555.2479
39.2459,1483.0557
39.2679,1552.3253
39.2899,1503.9791
39.3119,1547.9535
39.3339,1506.2594
39.3559,1599.4576
39.3779,1551.0283
39.3999,1504.3337
39.4219,1506.3806
39.4439,1554.1137
39.4659,1553.3196
39.4879,1663.0121
39.5099,1624.8091
39.5319,1678.4589
39.5539,1599.2092
39.5759,1598.9975
39.5979,1669.4984
39.6199,1618.9557
39.6419,1613.9024
39.6639,1530.8301
39.6859,1610.593
39.7079,1634.5742
39.7299,1615.9164
39.7519,1616.1505
39.7739,1627.5408
39.7959,1621.8818
39.8179,1556.2303
39.8399,1623.3434
39.8619,1702.7866
39.8839,1703.7772
39.9059,1690.9106
39.9279,1712.9333
39.9499,1745.2507
39.9719,1735.5326
39.9939,1754.9084
40.0159,1708.7521
40.0379,1697.3847
40.0599,1753.359
40.0819,1759.3126
40.1039,1737.5851
40.1259,1744.182
40.1479,1758.5369
40.1699,1744.2358
40.1919,1717.6678
40.2139,1766.6551
40.2359,1818.622
40.2579,1853.657
40.2799,1870.056
40.3019,1904.2
40.3239,1949.2574
40.3459,1884.6134
40.3679,1863.0404
40.3899,1902.305
40.4119,1975.7038
40.4339,1950.7577
40.4559,1932.7673
40.4779,2011.0591
40.4999,2060.2848
40.5219,2030.1334
40.5439,1973.6932
40.5659,2001.9372
40.5879,2116.3805
40.6099,2151.637
40.6319,2138.1628
40.6539,2170.5921
40.6759,2251.2702
40.6979,2282.0098
40.7199,2272.1799
40.7419,2438.7324
40.7639,2485.0342
40.7859,2470.7562
40.8079,2458.5397
40.8299,2511.7377
40.8519,2534.4479
40.8739,2504.0913
40.8959,2545.1856
40.9179,2499.7323
40.9399,2493.1918
40.9619,2362.9208
40.9839,2351.2302
41.0059,2366.1682
41.0279,2255.5832
41.0499,2236.3894
41.0719,2115.4995
41.0939,2091.8456
41.1159,2126.3167
41.1379,2104.1533
41.1599,2061.17
41.1819,2117.7406
41.2039,2124.0929
41.2259,2016.4333
41.2479,2079.6699
41.2699,2116.1505
41.2919,2154.3374
41.3139,2172.4651
41.3359,2049.4155
41.3579,2079.773
41.3799,2155.8539
41.4019,2127.9379
41.4239,2069.9898
41.4459,2100.3509
41.4679,2064.1461
41.4899,2083.6657
41.5119,2088.024
41.5339,2183.8551
41.5559,2095.1785
41.5779,2102.2809
41.5999,2019.9294
41.6219,2078.249
41.6439,2141.8013
41.6659,2106.0618
41.6879,2063.0131
41.7099,2033.9706
41.7319,2058.5028
41.7539,2039.4349
41.7759,2096.3474
41.7979,2063.8231
41.8199,2094.5912
41.8419,2165.0208
41.8639,2208.1033
41.8859,2218.2026
41.9079,2214.0711
41.9299,2182.3866
41.9519,2247.4235
41.9739,2313.5616
41.9959,2343.261
42.0179,2280.683
42.0399,2190.3947
42.0619,2185.6608
42.0839,2252.8342
42.1059,2302.6399
42.1279,2244.2211
42.1499,2158.5807
42.1719,2122.8931
42.1939,2113.4951
42.2159,2014.4315
42.2379,2020.4486
42.2599,2026.1768
42.2819,1988.8692
42.3039,1987.2164
42.3259,1978.1179
42.3479,1970.916
42.3699,1955.4522
42.3919,1937.146
42.4139,1965.9038
42.4359,2039.2028
42.4579,2109.8527
42.4799,2107.5815
42.5019,2143.2126
42.5239,2212.9618
42.5459,2342.0644
42.5679,2517.1048
42.5899,2963.0461
42.6119,3649.7147
42.6339,4859.2837
42.6559,6737.4711
42.6779,8302.2098
42.6999,7963.498
42.7219,6408.2776
42.7439,5267.7305
42.7659,5269.3293
42.7879,5058.5387
42.8099,4201.1699
42.8319,3005.5565
42.8539,2457.5533
42.8759,2232.8539
42.8979,2157.7648
42.9199,2108.4423
42.9419,2104.6342
42.9639,2057.8105
42.9859,2087.2037
43.0079,1964.737
43.0299,1995.653
43.0519,1987.7256
43.0739,1933.698
43.0959,1923.2871
43.1179,2025.5225
43.1399,1970.6557
43.1619,1983.1085
43.1839,2093.6772
43.2059,2145.8409
43.2279,2216.7193
43.2499,2241.2187
43.2719,2362.8089
43.2939,2416.4128
43.3159,2360.4258
43.3379,2228.3733
43.3599,2132.7812
43.3819,2133.0529
43.4039,2087.3229
43.4259,2041.4312
43.4479,1915.0546
43.4699,1924.4237
43.4919,1882.8056
43.5139,1840.3717
43.5359,1860.0769
43.5579,1880.6664
43.5799,1818.3584
43.6019,1817.9362
43.6239,1823.4133
43.6459,1828.8382
43.6679,1934.0208
43.6899,1925.7969
43.7119,1801.2256
43.7339,1840.5187
43.7559,1887.0733
43.7779,1807.7082
43.7999,1877.0239
43.8219,1904.75
43.8439,1882.5385
43.8659,1922.5487
43.8879,1909.2968
43.9099,1898.3364
43.9319,1963.6862
43.9539,1994.2791
43.9759,2017.1464
43.9979,2084.8722
44.0199,2037.0449
44.0419,2020.4398
44.0639,2055.4656
44.0859,2016.8297
44.1079,2019.4766
44.1299,2014.6999
44.1519,1980.1214
44.1739,2012.1153
44.1959,2045.944
44.2179,2058.0915
44.2399,2035.8538
44.2619,1955.215
44.2839,1912.8608
44.3059,1926.3629
44.3279,1946.7434
44.3499,1889.8532
44.3719,1866.8009
44.3939,1826.8857
44.4159,1849.7962
44.4379,1820.8847
44.4599,1838.3079
44.4819,1834.2772
44.5039,1800.2226
44.5259,1801.6824
44.5479,1822.0571
44.5699,1833.3009
44.5919,1854.1977
44.6139,1839.5073
44.6359,1919.9222
44.6579,1882.7726
44.6799,1906.8118
44.7019,1907.8318
44.7239,1993.4915
44.7459,2032.5783
44.7679,1912.0438
44.7899,2033.6682
44.8119,2061.765
44.8339,2180.8234
44.8559,2074.3649
44.8779,2102.5488
44.8999,2159.4028
44.9219,2143.2831
44.9439,2158.945
44.9659,2117.2213
44.9879,2142.8035
45.0099,2173.0789
45.0319,1976.0636
45.0539,2040.116
45.0759,2040.8751
45.0979,2024.6784
45.1199,2017.6861
45.1419,2075.8874
45.1639,1945.5795
45.1859,1910.1012
45.2079,1883.077
45.2299,1833.1858
45.2519,1806.5327
45.2739,1748.3717
45.2959,1761.8676
45.3179,1843.4512
45.3399,1803.9225
45.3619,1743.8319
45.3839,1792.9641
45.4059,1857.5442
45.4279,1727.3803
45.4499,1692.125
45.4719,1717.2536
45.4939,1732.4606
45.5159,1812.5226
45.5379,1796.7895
45.5599,1777.9557
45.5819,1783.5311
45.6039,1780.1783
45.6259,1771.5637
45.6479,1817.3899
45.6699,1807.1415
45.6919,1804.2626
45.7139,1817.879
45.7359,1839.9766
45.7579,1891.4426
45.7799,1920.5905
45.8019,1851.6671
45.8239,1807.8676
45.8459,1822.9663
45.8679,1818.7416
45.8899,1834.9232
45.9119,1806.8042
45.9339,1816.7347
45.9559,1847.1151
45.9779,1888.306
45.9999,1942.3266
46.0219,2098.3341
46.0439,2338.112
46.0659,2638.7239
46.0879,3200.995
46.1099,4072.7723
46.1319,5134.9861
46.1539,5689.5939
46.1759,4948.6334
46.1979,3923.5287
46.2199,3549.6441
46.2419,3576.6778
46.2639,3494.0983
46.2859,2850.4839
46.3079,2145.8364
46.3299,1835.133
46.3519,1731.2608
46.3739,1747.6147
46.3959,1598.4846
46.4179,1556.8997
46.4399,1539.3529
46.4619,1512.35
46.4839,1461.7255
46.5059,1489.6383
46.5279,1500.2891
46.5499,1551.9471
46.5719,1453.7985
46.5939,1532.0839
46.6159,1546.5148
46.6379,1473.4481
46.6599,1494.7921
46.6819,1530.832
46.7039,1503.5845
46.7259,1450.4167
46.7479,1492.3454
46.7699,1569.4984
46.7919,1542.872
46.8139,1633.8786
46.8359,1515.2144
46.8579,1513.3999
46.8799,1444.3191
46.9019,1566
46.9239,1567.2331
46.9459,1576.3893
46.9679,1575.8425
46.9899,1668.0308
47.0119,1773.8283
47.0339,2022.2761
47.0559,2272.011
47.0779,2674.3386
47.0999,3341.1618
47.1219,3943.1816
47.1439,3983.746
47.1659,3422.5794
47.1879,2826.9791
47.2099,2775.8143
47.2319,2816.1456
47.2539,2717.854
47.2759,2285.3774
47.2979,1891.6591
47.3199,1706.3726
47.3419,1579.4245
47.3639,1536.5031
47.3859,1542.8435
47.4079,1490.252
47.4299,1458.1781
47.4519,1468.4429
47.4739,1458.2301
47.4959,1472.2474
47.5179,1498.9961
47.5399,1528.9824
47.5619,1543.112
47.5839,1543.9583
47.6059,1609.6346
47.6279,1731.5049
47.6499,1770.5986
47.6719,1731.3804
47.6939,1720.1977
47.7159,1643.3957
47.7379,1608.2214
47.7599,1675.7363
47.7819,1679.4767
47.8039,1632.252
47.8259,1584.2722
47.8479,1529.0991
47.8699,1489.9557
47.8919,1473.5644
47.9139,1492.9549
47.9359,1502.9956
47.9579,1465.9369
47.9799,1462.8545
48.0019,1440.7993
48.0239,1446.9327
48.0459,1405.1168
48.0679,1409.9986
48.0899,1470.0386
48.1119,1434.8798
48.1339,1473.5135
48.1559,1416.2229
48.1779,1491.7949
48.1999,1517.4469
48.2219,1517.1721
48.2439,1490.9532
48.2659,1544.8233
48.2879,1530.7855
48.3099,1452.4471
48.3319,1473.1284
48.3539,1470.6883
48.3759,1551.343
48.3979,1469.153
48.4199,1463.8771
48.4419,1484.9185
48.4639,1478.295
48.4859,1362.9003
48.5079,1426.1767
48.5299,1392.0003
48.5519,1471.1394
48.5739,1401.0166
48.5959,1359.898
48.6179,1305.59
48.6399,1320.749
48.6619,1376.525
48.6839,1353.6979
48.7059,1324.1265
48.7279,1464.8095
48.7499,1410.6874
48.7719,1438.3521
48.7939,1445.6725
48.8159,1430.6498
48.8379,1398.8831
48.8599,1446.7496
48.8819,1510.2301
48.9039,1519.2982
48.9259,1583.4337
48.9479,1593.4012
48.9699,1576.1216
48.9919,1509.2581
49.0139,1485.9338
49.0359,1443.6158
49.0579,1493.0353
49.0799,1466.0107
49.1019,1423.393
49.1239,1357.0618
49.1459,1366.8569
49.1679,1437.2178
49.1899,1380.9021
49.2119,1318.577
49.2339,1342.1876
49.2559,1341.0711
49.2779,1413.1487
49.2999,1407.4338
49.3219,1351.9203
49.3439,1329.3568
49.3659,1327.946
49.3879,1340.2065
49.4099,1369.4152
49.4319,1386.3543
49.4539,1384.5193
49.4759,1444.9241
49.4979,1470.9389
49.5199,1497.7171
49.5419,1544.2656
49.5639,1642.6525
49.5859,1854.0835
49.6079,2169.5997
49.6299,2612.3617
49.6519,3181.8695
49.6739,3972.3593
49.6959,4730.7149
49.7179,4797.415
49.7399,4084.6612
49.7619,3344.1746
49.7839,3121.8804
49.8059,3231.7646
49.8279,3083.4773
49.8499,2620.3549
49.8719,2089.1268
49.8939,1689.7587
49.9159,1522.3713
49.9379,1520.8123
49.9599,1458.2927
49.9819,1438.5664
50.0039,1400.9423
50.0259,1388.821
50.0479,1427.012
50.0699,1434
50.0919,1414.8013
50.1139,1355.3626
50.1359,1422.4718
50.1579,1330.9504
50.1799,1321.9218
50.2019,1384.5863
50.2239,1343.5721
50.2459,1428.2422
50.2679,1282.4665
50.2899,1332.0808
50.3119,1267.2918
50.3339,1265.5824
50.3559,1339.6653
50.3779,1370.7993
50.3999,1332.5391
50.4219,1281.4829
50.4439,1303.9896
50.4659,1274.6331
50.4879,1249.7842
50.5099,1273.6905
50.5319,1324.668
50.5539,1292.5853
50.5759,1344.5738
50.5979,1342.0371
50.6199,1278.1736
50.6419,1282.3805
50.6639,1291.9168
50.6859,1354.4099
50.7079,1328.5886
50.7299,1350.2723
50.7519,1309.7568
50.7739,1254.9235
50.7959,1288.9361
50.8179,1263.7381
50.8399,1232.7319
50.8619,1306.48
50.8839,1325.6849
50.9059,1312.5574
50.9279,1290.737
50.9499,1288.1435
50.9719,1272.1859
50.9939,1288.0513
51.0159,1300.611
51.0379,1293.413
51.0599,1279.7397
51.0819,1271.4368
51.1039,1287.6105
51.1259,1295.5174
51.1479,1308.6582
51.1699,1252.1059
51.1919,1222.1294
51.2139,1256.9805
51.2359,1278.5354
51.2579,1251.6989
51.2799,1260.3287
51.3019,1241.1678
51.3239,1223.4387
51.3459,1253.0384
51.3679,1228.0381
51.3899,1205.7935
51.4119,1243.6079
51.4339,1226.5425
51.4559,1212.1554
51.4779,1225.7641
51.4999,1187.1458
51.5219,1222.7565
51.5439,1184.6638
51.5659,1234.7556
51.5879,1245.2039
51.6099,1190.3134
51.6319,1224.313
51.6539,1194.5533
51.6759,1219.6693
51.6979,1215.2919
51.7199,1184.9694
51.7419,1301.9416
51.7639,1244.4465
51.7859,1214.8092
51.8079,1247.0862
51.8299,1269.1859
51.8519,1280.5595
51.8739,1205.5945
51.8959,1199.2832
51.9179,1226.7848
51.9399,1223.6642
51.9619,1231.2567
51.9839,1187.3744
52.0059,1173.6381
52.0279,1227.394
52.0499,1194.2368
52.0719,1163.6341
52.0939,1192.7346
52.1159,1282.6382
52.1379,1178.8812
52.1599,1233.6637
52.1819,1225.1852
52.2039,1295.6338
52.2259,1202.5046
52.2479,1248.2141
52.2699,1196.4585
52.2919,1250.8805
52.3139,1248.4142
52.3359,1307.769
52.3579,1309.3242
52.3799,1236.9625
52.4019,1199.8986
52.4239,1190.1432
52.4459,1216.3706
52.4679,1210.0026
52.4899,1239.7701
52.5119,1259.598
52.5339,1204.6588
52.5559,1214.7361
52.5779,1241.0316
52.5999,1271.44
52.6219,1259.7109
52.6439,1249.5235
52.6659,1271.0043
52.6879,1325.5263
52.7099,1296.3649
52.7319,1280.9304
52.7539,1268.3485
52.7759,1307.692
52.7979,1263.4621
52.8199,1275.6801
52.8419,1299.6362
52.8639,1301.5787
52.8859,1298.3982
52.9079,1326.6606
52.9299,1361.4179
52.9519,1348.4719
52.9739,1326.9645
52.9959,1318.9411
53.0179,1330.5812
53.0399,1345.3541
53.0619,1330.0618
53.0839,1351.9959
53.1059,1394.122
53.1279,1380.2285
53.1499,1423.5314
53.1719,1491.7037
53.1939,1528.7769
53.2159,1557.686
53.2379,1603.2962
53.2599,1639.4219
53.2819,1648
53.3039,1637.9926
53.3259,1646.5891
53.3479,1653
53.3699,1605.8296
53.3919,1603.1918
53.4139,1576.4836
53.4359,1556.5909
53.4579,1499.7696
53.4799,1485.8275
53.5019,1441.1109
53.5239,1462.7632
53.5459,1536.1891
53.5679,1599.25
53.5899,1684.4251
53.6119,1877.079
53.6339,2235.4322
53.6559,2596.9282
53.6779,3087.4357
53.6999,3433.4
53.7219,3299.6698
53.7439,2681.1699
53.7659,2358.4462
53.7879,2363.2518
53.8099,2330.8052
53.8319,2259.7254
53.8539,2148.8373
53.8759,1823.3394
53.8979,1564.2497
53.9199,1378.3778
53.9419,1323.5043
53.9639,1302.4257
53.9859,1290.1802
54.0079,1353.3024
54.0299,1355.7442
54.0519,1321.216
54.0739,1262.0178
54.0959,1289.4518
54.1179,1278.1718
54.1399,1234.3689
54.1619,1278.6699
54.1839,1321.3428
54.2059,1254.6462
54.2279,1280.3495
54.2499,1282.5882
54.2719,1311.1856
54.2939,1277.4888
54.3159,1275.1637
54.3379,1203.7497
54.3599,1275.7143
54.3819,1276.0414
54.4039,1274.8863
54.4259,1227.2417
54.4479,1199.2519
54.4699,1243.5666
54.4919,1249.8826
54.5139,1196.1476
54.5359,1191.7815
54.5579,1181.0779
54.5799,1219.5414
54.6019,1210.5749
54.6239,1187.659
54.6459,1235.5921
54.6679,1243.553
54.6899,1246.8674
54.7119,1242.0499
54.7339,1226.0415
54.7559,1225.5598
54.7779,1193.6214
54.7999,1205.1063
54.8219,1214.2408
54.8439,1187.0087
54.8659,1196.4515
54.8879,1219.5521
54.9099,1212.6627
54.9319,1221.4175
54.9539,1230.822
54.9759,1242.0256
54.9979,1216.2535
55.0199,1220.0346
55.0419,1210.7501
55.0639,1160.575
55.0859,1177.4506
55.1079,1202.7503
55.1299,1203.2507
55.1519,1218.0911
55.1739,1230.6952
55.1959,1261.2435
55.2179,1291.1486
55.2399,1344.4241
55.2619,1352.3893
55.2839,1438.1627
55.3059,1454.5722
55.3279,1430.4556
55.3499,1442.8251
55.3719,1423.1469
55.3939,1382.1031
55.4159,1360.5992
55.4379,1368.3127
55.4599,1330.7741
55.4819,1339.1436
55.5039,1284.5351
55.5259,1286.177
55.5479,1333.9633
55.5699,1367.8605
55.5919,1372.8363
55.6139,1411.3089
55.6359,1413.97
55.6579,1437.5753
55.6799,1377.3296
55.7019,1331.1033
55.7239,1347.3233
55.7459,1414.4965
55.7679,1396.3744
55.7899,1335.6369
55.8119,1276.7447
55.8339,1246.5644
55.8559,1251.0486
55.8779,1237.9973
55.8999,1288.765
55.9219,1284.2742
55.9439,1256.1959
55.9659,1214.5993
55.9879,1302.4998
56.0099,1244.9672
56.0319,1192.2565
56.0539,1262.0177
56.0759,1267.9425
56.0979,1254.4686
56.1199,1202.5505
56.1419,1241.574
56.1639,1212.875
56.1859,1266.6135
56.2079,1263.2896
56.2299,1248.6045
56.2519,1242.8455
56.2739,1293.9624
56.2959,1272.1137
56.3179,1269.5013
56.3399,1248.4465
56.3619,1292.4202
56.3839,1282.5289
56.4059,1192.999
56.4279,1206.0872
56.4499,1232.3983
56.4719,1237.4371
56.4939,1229.9114
56.5159,1237.0813
56.5379,1235.1984
56.5599,1235.7982
56.5819,1227.6015
56.6039,1172.5672
56.6259,1185.956
56.6479,1216.5354
56.6699,1233.4308
56.6919,1244.7601
56.7139,1313.9622
56.7359,1419.611
56.7579,1384.1833
56.7799,1265.557
56.8019,1232.8074
56.8239,1273.5877
56.8459,1287.1858
56.8679,1294.533
56.8899,1235.622
56.9119,1199.9026
56.9339,1207.7326
56.9559,1182.9934
56.9779,1185.3954
56.9999,1214.4259
57.0219,1163.452
57.0439,1163.4293
57.0659,1118.4815
57.0879,1137.3738
57.1099,1170.0119
57.1319,1167.9419
57.1539,1184.8162
57.1759,1159.106
57.1979,1164.7975
57.2199,1139.641
57.2419,1217.3898
57.2639,1241.4342
57.2859,1199.2997
57.3079,1114.4362
57.3299,1138.9913
57.3519,1163.3605
57.3739,1107.5986
57.3959,1136.4121
57.4179,1081.9958
57.4399,1195.3899
57.4619,1226.715
57.4839,1152.9901
57.5059,1149.3393
57.5279,1171.1075
57.5499,1140.1014
57.5719,1165.9675
57.5939,1148.4701
57.6159,1171.9814
57.6379,1193.168
57.6599,1157.0454
57.6819,1100.8803
57.7039,1154.1463
57.7259,1204.2753
57.7479,1204.8004
57.7699,1206.7613
57.7919,1253.9199
57.8139,1259.0766
57.8359,1242.5974
57.8579,1237.1778
57.8799,1187.8669
57.9019,1129.7996
57.9239,1175.9451
57.9459,1211.9864
57.9679,1228.5366
57.9899,1184.8516
58.0119,1189.0255
58.0339,1170.5397
58.0559,1163.3557
58.0779,1204.3402
58.0999,1205.1873
58.1219,1180.7726
58.1439,1161.8782
58.1659,1177.7817
58.1879,1164.6676
58.2099,1161.121
58.2319,1156.9689
58.2539,1126.8858
58.2759,1129.6875
58.2979,1171.2893
58.3199,1193
58.3419,1158.3094
58.3639,1115.0707
58.3859,1182.4274
58.4079,1205.2434
58.4299,1206.1951
58.4519,1233.4183
58.4739,1245.3335
58.4959,1275.357
58.5179,1299.0837
58.5399,1275.0464
58.5619,1286.074
58.5839,1346.6379
58.6059,1395.1723
58.6279,1368.2962
58.6499,1399.9266
58.6719,1447.653
58.6939,1448.1799
58.7159,1434.3293
58.7379,1490.4625
58.7599,1575.3735
58.7819,1739.4335
58.8039,1973.2818
58.8259,2477.7991
58.8479,3194.852
58.8699,4474.8314
58.8919,5983.526
58.9139,7557.7642
58.9359,8458.9123
58.9579,7386.4417
58.9799,5156.2346
59.0019,4200.8819
59.0239,4014.5792
59.0459,4510.3242
59.0679,4921.9939
59.0899,4395.4838
59.1119,3243.9833
59.1339,2314.5318
59.1559,1739.3722
59.1779,1605.3683
59.1999,1383.7379
59.2219,1301.0174
59.2439,1291.114
59.2659,1308.9647
59.2879,1238.2272
59.3099,1260.4298
59.3319,1277.9178
59.3539,1251.729
59.3759,1321.2886
59.3979,1235.0917
59.4199,1292.1197
59.4419,1334.3981
59.4639,1314.6723
59.4859,1343.0822
59.5079,1279.5273
59.5299,1328.8877
59.5519,1291.7374
59.5739,1275.8139
59.5959,1242.1266
59.6179,1278.1767
59.6399,1235.075
59.6619,1257.6434
59.6839,1157.81
59.7059,1193.586
59.7279,1173.0101
59.7499,1149.6373
59.7719,1173.9834
59.7939,1172.093
59.8159,1124.8232
59.8379,1169.2451
59.8599,1209.2577
59.8819,1187.3859
59.9039,1134.015
59.9259,1148.8621
59.9479,1135.0252
59.9699,1156.4346
59.9919,1151.5781
60.0139,1145.0885
60.0359,1099.034
60.0579,1092.7783
60.0799,1174.5651
60.1019,1193.2792
60.1239,1171.814
60.1459,1192.6641
60.1679,1229.4823
60.1899,1205.458
60.2119,1161.1989
60.2339,1149.8546
60.2559,1110.9489
60.2779,1099.1713
60.2999,1140.5744
60.3219,1140.2998
60.3439,1150.4102
60.3659,1097.8402
60.3879,1081.6202
60.4099,1046.6633
60.4319,1051.1227
60.4539,1076.9411
60.4759,1036.513
60.4979,1039.7081
60.5199,1047.5069
60.5419,1055.9529
60.5639,1037.5805
60.5859,1071.6591
60.6079,1077.2787
60.6299,1041.3164
60.6519,1051.8541
60.6739,1039.168
60.6959,1031.6091
60.7179,1012.3873
60.7399,1029.36
60.7619,1034
60.7839,1110.997
60.8059,1035.7252
60.8279,1061.0523
60.8499,983.9986
60.8719,1000.7538
60.8939,1009.4455
60.9159,1006.3205
60.9379,1040.4898
60.9599,1038.2778
60.9819,1007.3843
61.0039,1045.7303
61.0259,1025.4109
61.0479,1030.9617
61.0699,1012.3011
61.0919,1061.417
61.1139,976.3354
61.1359,988.8822
61.1579,1029.8986
61.1799,1013.9638
61.2019,1051.8936
61.2239,1021.8843
61.2459,1076.1434
61.2679,1043.9322
61.2899,1061.3052
61.3119,1122.957
61.3339,1074.1534
61.3559,1078.8108
61.3779,1095.8642
61.3999,1083.907
61.4219,1075.6077
61.4439,1085.0901
61.4659,1111.9086
61.4879,1101.5917
61.5099,1053.9655
61.5319,1060.9134
61.5539,1112.6055
61.5759,1085.4026
61.5979,1079.9027
61.6199,1092.335
61.6419,1118.5802
61.6639,1127.3511
61.6859,1131.4002
61.7079,1136.1741
61.7299,1137.0029
61.7519,1131.2261
61.7739,1122.8141
61.7959,1097.5972
61.8179,1092.6806
61.8399,1104.406
61.8619,1096.0354
61.8839,1108.8314
61.9059,1077.798
61.9279,1046.1019
61.9499,1068.9558
61.9719,1094.8246
61.9939,1076.0174
62.0159,1081.9438
62.0379,1106.7993
62.0599,1103.913
62.0819,1062.4392
62.1039,1033.6687
62.1259,1087.6494
62.1479,1083.6855
62.1699,1081.9569
62.1919,1065.6281
62.2139,1078.9619
62.2359,1091.3987
62.2579,1107.0798
62.2799,1113.9543
62.3019,1111.6116
62.3239,1115.239
62.3459,1117.7188
62.3679,1139.2012
62.3899,1121.7255
62.4119,1107.7104
62.4339,1101.3923
62.4559,1126.5282
62.4779,1149.8506
62.4999,1201.4846
62.5219,1137.0084
62.5439,1154.835
62.5659,1196.5095
62.5879,1167.1325
62.6099,1087.3664
62.6319,1115.5356
62.6539,1189.5962
62.6759,1160.9708
62.6979,1194.5331
62.7199,1173.8789
62.7419,1191.7405
62.7639,1167.2875
62.7859,1121.6281
62.8079,1176.6601
62.8299,1132.4973
62.8519,1166.9956
62.8739,1163.8623
62.8959,1152.8533
62.9179,1111.0739
62.9399,1138.7597
62.9619,1149.4756
62.9839,1101.3631
63.0059,1154.4749
63.0279,1152.6929
63.0499,1185.4395
63.0719,1170.9244
63.0939,1102.8703
63.1159,1132.1729
63.1379,1176.3259
63.1599,1091.0083
63.1819,1176.0886
63.2039,1193.0093
63.2259,1182.6872
63.2479,1173.0313
63.2699,1205.7843
63.2919,1166.1069
63.3139,1196.1355
63.3359,1170.7188
63.3579,1175.1583
63.3799,1179.5621
63.4019,1232.318
63.4239,1287.3948
63.4459,1281.3333
63.4679,1280.1476
63.4899,1274.7569
63.5119,1230.2682
63.5339,1196.53
63.5559,1215.1865
63.5779,1206.6191
63.5999,1181.9044
63.6219,1199.46
63.6439,1234.0508
63.6659,1286.575
63.6879,1248.7269
63.7099,1260.2157
63.7319,1239.2772
63.7539,1239.6171
63.7759,1294.9646
63.7979,1288.1701
63.8199,1265.6468
63.8419,1273.1831
63.8639,1280.7964
63.8859,1266.0501
63.9079,1265.1402
63.9299,1274.6412
63.9519,1266.6794
63.9739,1281.6196
63.9959,1319.3434
64.0179,1346.711
64.0399,1325.3965
64.0619,1342.1644
64.0839,1315.6133
64.1059,1282.9586
64.1279,1262.7128
64.1499,1368.1778
64.1719,1320.5879
64.1939,1316.7957
64.2159,1316.8377
64.2379,1303.1386
64.2599,1316.5503
64.2819,1345.8123
64.3039,1317.867
64.3259,1300.1002
64.3479,1364.9817
64.3699,1358.4601
64.3919,1353.2763
64.4139,1291.8099
64.4359,1332.6404
64.4579,1383.9363
64.4799,1332.5169
64.5019,1382.3985
64.5239,1457.17
64.5459,1463.8958
64.5679,1542.7349
64.5899,1871.7785
64.6119,2260.1342
64.6339,2755.5541
64.6559,3557.4301
64.6779,4021.1147
64.6999,3723.786
64.7219,2813.9702
64.7439,2364.3192
64.7659,2128.5675
64.7879,2360.2919
64.8099,2554.4365
64.8319,2881.2646
64.8539,2660.6187
64.8759,2134.0489
64.8979,1795.645
64.9199,1603.1392
64.9419,1524.5287
64.9639,1471.8317
64.9859,1444.3874
65.0079,1447.236
65.0299,1442.1768
65.0519,1403.0801
65.0739,1402.8724
65.0959,1439.6828
65.1179,1450.3268
65.1399,1512.9937
65.1619,1560.7881
65.1839,1650.3469
65.2059,1709.314
65.2279,1744.4217
65.2499,1695.5147
65.2719,1558.4218
65.2939,1446.8999
65.3159,1468.3535
65.3379,1440.5779
65.3599,1440.6421
65.3819,1487.9458
65.4039,1465.61
65.4259,1415.156
65.4479,1360.2526
65.4699,1350.6412
65.4919,1344.5662
65.5139,1332
65.5359,1302.4417
65.5579,1267.3539
65.5799,1264.6279
65.6019,1236.8798
65.6239,1225.8541
65.6459,1230.1258
65.6679,1275.7261
65.6899,1245.905
65.7119,1221.3734
65.7339,1268.8036
65.7559,1280.8893
65.7779,1253.0972
65.7999,1225.0849
65.8219,1210.3923
65.8439,1248.7299
65.8659,1298.4702
65.8879,1266.6531
65.9099,1271.1378
65.9319,1285.3334
65.9539,1273.7787
65.9759,1237.634
65.9979,1262.6777
66.0199,1237.7446
66.0419,1221.5142
66.0639,1261.3906
66.0859,1221.0793
66.1079,1224.5906
66.1299,1236.3285
66.1519,1267.5798
66.1739,1247.2771
66.1959,1226.4753
66.2179,1204.5958
66.2399,1277.1214
66.2619,1267.8681
66.2839,1384.5361
66.3059,1471.3564
66.3279,1513.7952
66.3499,1542.7612
66.3719,1526.5751
66.3939,1512.2752
66.4159,1432.5896
66.4379,1308.0049
66.4599,1308.7074
66.4819,1293.6817
66.5039,1350.7972
66.5259,1388.863
66.5479,1333.469
66.5699,1324.584
66.5919,1298.0855
66.6139,1195.4895
66.6359,1165.9243
66.6579,1165.3301
66.6799,1119.5858
66.7019,1156.0372
66.7239,1147.5058
66.7459,1208.9201
66.7679,1174.1071
66.7899,1177.2884
66.8119,1231.6241
66.8339,1245.7409
66.8559,1181.1074
66.8779,1196.7196
66.8999,1175.9953
66.9219,1191.6104
66.9439,1159.5752
66.9659,1156.2015
66.9879,1148.7464
67.0099,1137.2062
67.0319,1091.9586
67.0539,1107.0387
67.0759,1137.3523
67.0979,1114.6263
67.1199,1112.0703
67.1419,1125.3276
67.1639,1159.0316
67.1859,1134.7921
67.2079,1108.8012
67.2299,1115.9456
67.2519,1076.7256
67.2739,1049.0647
67.2959,1085.1756
67.3179,1137.5515
67.3399,1098.9599
67.3619,1070.0423
67.3839,1073.1337
67.4059,1111.018
67.4279,1131.5137
67.4499,1120.0078
67.4719,1108.261
67.4939,1158.5148
67.5159,1203.0718
67.5379,1267.7085
67.5599,1337.8518
67.5819,1283.5776
67.6039,1176.7089
67.6259,1149.355
67.6479,1126.4437
67.6699,1111.2271
67.6919,1130.4598
67.7139,1199.2954
67.7359,1191.606
67.7579,1166.6371
67.7799,1131.813
67.8019,1162.6492
67.8239,1156.2978
67.8459,1091.6338
67.8679,1092.0768
67.8899,1127.013
67.9119,1106.6621
67.9339,1070.7343
67.9559,1123.8573
67.9779,1137.4612
67.9999,1104.6517
68.0219,1055.5061
68.0439,1053.6087
68.0659,1084.1772
68.0879,1062.9045
68.1099,1077.9028
68.1319,1097.0753
68.1539,1039.2189
68.1759,1087.7476
68.1979,1127.54
68.2199,1117.002
68.2419,1120.4245
68.2639,1077.4546
68.2859,1132.5052
68.3079,1090.8217
68.3299,1032.8498
68.3519,1074.3666
68.3739,1058.3267
68.3959,1100.2446
68.4179,1074.1115
68.4399,1136.6553
68.4619,1110.7725
68.4839,1057.4756
68.5059,1083.0696
68.5279,1055.7966
68.5499,1074.1849
68.5719,1074.4085
68.5939,1072.8378
68.6159,1079.5478
68.6379,1089.6597
68.6599,1077.0736
68.6819,1054.2417
68.7039,1043.9196
68.7259,1083.6462
68.7479,1107.7277
68.7699,1094.3781
68.7919,1034.199
68.8139,1033.9707
68.8359,1052.9661
68.8579,1046.3598
68.8799,1038
68.9019,1023.8838
68.9239,1026.2039
68.9459,1059.7207
68.9679,1057.0207
68.9899,1051.9409
69.0119,1051.0611
69.0339,1065.4473
69.0559,1025.8683
69.0779,1037.384
69.0999,1072.3144
69.1219,1073.1861
69.1439,1079.5318
69.1659,1097.2117
69.1879,1125.5413
69.2099,1107.7314
69.2319,1105.4495
69.2539,1086.6694
69.2759,1059.5049
69.2979,1067.6579
69.3199,1079.6903
69.3419,1070.0805
69.3639,1064.2793
69.3859,1141.275
69.4079,1083.0321
69.4299,1095.2385
69.4519,1125
69.4739,1080.8315
69.4959,1049.1592
69.5179,1083.1861
69.5399,1120.1388
69.5619,1058.2266
69.5839,1071.602
69.6059,1076.0265
69.6279,1075.5742
69.6499,1065.6076
69.6719,1062.1883
69.6939,1047.992
69.7159,1084.3056
69.7379,1069.9369
69.7599,1085.8
69.7819,1095.9853
69.8039,1068.6655
69.8259,1060.5113
69.8479,1110.0519
69.8699,1094.7088
69.8919,1056.5499
69.9139,1070.0974
69.9359,1107.4496
69.9579,1071.1119
69.9799,1021.7947
70.0019,1104.6701
70.0239,1017.6356
70.0459,1093.4337
70.0679,1109.9148
70.0899,991.0857
70.1119,1013.9425
70.1339,1013.9775
70.1559,1031.6803
70.1779,1080.5072
70.1999,1050.6275
70.2219,1081.119
70.2439,1086.2008
70.2659,1104.9554
70.2879,1052.2468
70.3099,1061.6904
70.3319,1073.0152
70.3539,1068.24
70.3759,1083.1297
70.3979,1082.2136
70.4199,1109.3567
70.4419,1076.2743
70.4639,1069.933
70.4859,1081.4498
70.5079,1152.6904
70.5299,1155.1561
70.5519,1133.5607
70.5739,1176.7848
70.5959,1198.3279
70.6179,1192.1956
70.6399,1194.5106
70.6619,1225.9184
70.6839,1243.8212
70.7059,1257.2123
70.7279,1290.3895
70.7499,1427.1327
70.7719,1583.3975
70.7939,1819.4395
70.8159,2202.2382
70.8379,2846.7661
70.8599,3871.4251
70.8819,5044.2819
70.9039,5921.5029
70.9259,5971.3723
70.9479,5091.8065
70.9699,3824.008
70.9919,3009.1278
71.0139,2776.4884
71.0359,2964.9932
71.0579,3320.2546
71.0799,3545.3651
71.1019,3467.0519
71.1239,3030.2983
71.1459,2362.5565
71.1679,1835.5258
71.1899,1552.4443
71.2119,1440.0031
71.2339,1343.3504
71.2559,1304.5167
71.2779,1246.9927
71.2999,1247.0798
71.3219,1200.2513
71.3439,1162.1002
71.3659,1137.8052
71.3879,1117.3622
71.4099,1179.5295
71.4319,1174.9453
71.4539,1165.7709
71.4759,1087.9601
71.4979,1128.3986
71.5199,1112.987
71.5419,1113.1387
71.5639,1107.0501
71.5859,1089.2605
71.6079,1090.5733
71.6299,1081.0383
71.6519,1080.9179
71.6739,1054.9546
71.6959,1116.1464
71.7179,1107.5879
71.7399,1107.9671
71.7619,1019.8579
71.7839,1119.1481
71.8059,1081.3505
71.8279,1169.221
71.8499,1121.6007
71.8719,1108.4897
71.8939,1119.3097
71.9159,1107.2616
71.9379,1110.8446
71.9599,1109.8998
71.9819,1113.8866
72.0039,1077.5919
72.0259,1140.8288
72.0479,1121.3654
72.0699,1134.7885
72.0919,1132.9117
72.1139,1149.1993
72.1359,1115.5322
72.1579,1158.0298
72.1799,1175.2211
72.2019,1106.5373
72.2239,1141.7149
72.2459,1094.7387
72.2679,1147.5574
72.2899,1172.5836
72.3119,1113.446
72.3339,1138.0602
72.3559,1158.0869
72.3779,1138.8534
72.3999,1144.133
72.4219,1170.9497
72.4439,1160.1264
72.4659,1164.6646
72.4879,1149.3805
72.5099,1143.589
72.5319,1168.9344
72.5539,1202.8437
72.5759,1234.8229
72.5979,1225.4477
72.6199,1155.2846
72.6419,1173.2599
72.6639,1212.2493
72.6859,1200.1768
72.7079,1175.937
72.7299,1172.5202
72.7519,1185.2464
72.7739,1180.2024
72.7959,1154.7452
72.8179,1204.7794
72.8399,1211.0316
72.8619,1204.3807
72.8839,1221.4248
72.9059,1239.6993
72.9279,1252.5231
72.9499,1257.2154
72.9719,1328.4686
72.9939,1342.9674
73.0159,1340.1594
73.0379,1331.5397
73.0599,1246.3882
73.0819,1288.9829
73.1039,1281.0862
73.1259,1284.0522
73.1479,1302.8128
73.1699,1317.7238
73.1919,1359.1355
73.2139,1333.634
73.2359,1310.3514
73.2579,1293.1425
73.2799,1302.4116
73.3019,1309.1987
73.3239,1319.3722
73.3459,1192.2174
73.3679,1288.5883
73.3899,1212.555
73.4119,1219.0237
73.4339,1287.6838
73.4559,1378.2449
73.4779,1235.8486
73.4999,1364.7511
73.5219,1296.914
73.5439,1344.6965
73.5659,1348.9617
73.5879,1349
73.6099,1372.484
73.6319,1412.7831
73.6539,1404.5458
73.6759,1422.1154
73.6979,1485.073
73.7199,1516.7802
73.7419,1509.4658
73.7639,1461.1957
73.7859,1465.8635
73.8079,1496.1006
73.8299,1535.8186
73.8519,1462.971
73.8739,1459.7081
73.8959,1484.4669
73.9179,1515.6926
73.9399,1424.7034
73.9619,1389.45
73.9839,1332.0397
74.0059,1320.3218
74.0279,1351.2453
74.0499,1352
74.0719,1333.3757
74.0939,1275.9448
74.1159,1273.6085
74.1379,1295.0469
74.1599,1253.5756
74.1819,1246.6392
74.2039,1248.7831
74.2259,1235.356
74.2479,1231.2128
74.2699,1208.5396
74.2919,1184.2143
74.3139,1173.6823
74.3359,1163.7567
74.3579,1144.9367
74.3799,1098.8563
74.4019,1127.7912
74.4239,1136.4094
74.4459,1093.4928
74.4679,1101.0884
74.4899,1086.9379
74.5119,1087.2833
74.5339,1092.8318
74.5559,1085.1371
74.5779,1076.5791
74.5999,1054.9231
74.6219,1076.786
74.6439,1099.4631
74.6659,1075.9378
74.6879,1087.7908
74.7099,1059.5286
74.7319,1062.3778
74.7539,1065.9812
74.7759,1084.866
74.7979,1084.4896
74.8199,1067.6828
74.8419,1091.0042
74.8639,1112.9735
74.8859,1087.2879
74.9079,1078.9479
74.9299,1049.28
74.9519,1080.1242
74.9739,1068.2368
74.9959,1025.6236
75.0179,1066.3013
75.0399,1026.303
75.0619,1088.8943
75.0839,1054.8817
75.1059,1042.4572
75.1279,1042.8599
75.1499,1111.9021
75.1719,1040.6288
75.1939,1057.7996
75.2159,1138.2694
75.2379,1044.6523
75.2599,1070.5445
75.2819,1072.0541
75.3039,1095.9554
75.3259,1134.8498
75.3479,1146.8108
75.3699,1158.9411
75.3919,1161.3062
75.4139,1069.1803
75.4359,1126.5297
75.4579,1082.4425
75.4799,1095.1665
75.5019,1143.5257
75.5239,1083.0811
75.5459,1091.2866
75.5679,1160.7315
75.5899,1147.404
75.6119,1139.4656
75.6339,1208.3006
75.6559,1161.0708
75.6779,1164.6925
75.6999,1207.6411
75.7219,1197.9467
75.7439,1167.8767
75.7659,1192.3021
75.7879,1211.597
75.8099,1173.6001
75.8319,1210.798
75.8539,1243.2394
75.8759,1318.667
75.8979,1385.4961
75.9199,1510.4276
75.9419,1699.9829
75.9639,1836.774
75.9859,1947.3419
76.0079,1836.1241
76.0299,1602.6789
76.0519,1442.77
76.0739,1423.7046
76.0959,1350.7563
76.1179,1368.34
76.1399,1449.5517
76.1619,1481.0043
76.1839,1514.7507
76.2059,1475.028
76.2279,1377.4393
76.2499,1282.4421
76.2719,1243.0059
76.2939,1214.9456
76.3159,1140.2103
76.3379,1102.0384
76.3599,1098.5844
76.3819,1106.8143
76.4039,1120
76.4259,1091.9171
76.4479,1072
76.4699,1067.1229
76.4919,1040.9885
76.5139,1004.8022
76.5359,1039.8421
76.5579,981.014
76.5799,971.226
76.6019,978.4326
76.6239,1008.0883
76.6459,1008.8406
76.6679,937.4562
76.6899,991.1157
76.7119,977.5439
76.7339,1016.7566
76.7559,998.6064
76.7779,1005.1978
76.7999,1022.7041
76.8219,1000.1984
76.8439,988.2699
76.8659,1035.1911
76.8879,953.9374
76.9099,1003.7261
76.9319,1041.0326
76.9539,1000.9977
76.9759,1035.1551
76.9979,1030.9537
77.0199,1051.0891
77.0419,990.743
77.0639,1009.5375
77.0859,1002.4159
77.1079,987.5088
77.1299,943.9516
77.1519,986.5893
77.1739,1019.8936
77.1959,983.2986
77.2179,940.9741
77.2399,1044.606
77.2619,1011.6776
77.2839,1025.417
77.3059,1044.5427
77.3279,1027.178
77.3499,1025.5563
77.3719,1001.8145
77.3939,1058.3984
77.4159,1084.0724
77.4379,1084.6632
77.4599,1009.1414
77.4819,983.5508
77.5039,1001.6282
77.5259,986.8004
77.5479,992.3571
77.5699,1016
77.5919,1017.1824
77.6139,999.3564
77.6359,954.1022
77.6579,1029.0417
77.6799,1079.8565
77.7019,1058.6956
77.7239,992.6205
77.7459,1004.9658
77.7679,1010.5897
77.7899,993.3553
77.8119,1004.7956
77.8339,953.9909
77.8559,952.3509
77.8779,982.2261
77.8999,983.7198
77.9219,981.0579
77.9439,954.3051
77.9659,952.363
77.9879,968.0846
78.0099,1002.2512
78.0319,1000.0393
78.0539,957.473
78.0759,977.7411
78.0979,1047.4372
78.1199,1086.965
78.1419,1125.7636
78.1639,1163.8879
78.1859,1165.8417
78.2079,1122.7104
78.2299,1057.982
78.2519,1054.7617
78.2739,1005.2491
78.2959,1031.2396
78.3179,1052.9477
78.3399,1086.5348
78.3619,1104.3333
78.3839,1079.5942
78.4059,1057.2487
78.4279,1020.3404
78.4499,994.1149
78.4719,977.35
78.4939,984.1063
78.5159,926.2778
78.5379,950.3701
78.5599,958.559
78.5819,968.0542
78.6039,1025.5275
78.6259,1020.2742
78.6479,970.5449
78.6699,975.2587
78.6919,975.4469
78.7139,968.0934
78.7359,998.5223
78.7579,981.6901
78.7799,1016.8085
78.8019,1029.2124
78.8239,946.7694
78.8459,995.2875
78.8679,1004.6962
78.8899,987.6902
78.9119,961.6773
78.9339,969.8762
78.9559,953.025
78.9779,970.184
78.9999,987.7627
79.0219,1019.3273
79.0439,997.9952
79.0659,939.5596
79.0879,965.8069
79.1099,991.0296
79.1319,1009.9973
79.1539,981.4542
79.1759,976.3928
79.1979,972.5349
79.2199,973.9557
79.2419,950.443
79.2639,905.5488
79.2859,966.0642
79.3079,888.9065
79.3299,947.959
79.3519,967.7591
79.3739,909.0336
79.3959,925.5791
79.4179,928.8587
79.4399,972.2272
79.4619,978.469
79.4839,978.4574
79.5059,989.1071
79.5279,983.0896
79.5499,972.8551
