Pos. [°2?],Intensity [Counts]
8.3359,4739.4735
8.3579,4710.8406
8.3799,4671.9922
8.4019,4667.3628
8.4239,4695.8466
8.4459,4627.0304
8.4679,4631.6874
8.4899,4602.8869
8.5119,4622.3299
8.5339,4567.2831
8.5559,4562.031
8.5779,4598.6273
8.5999,4578.3304
8.6219,4620.2105
8.6439,4641.5674
8.6659,4514.9498
8.6879,4522.827
8.7099,4513.3785
8.7319,4497.1106
8.7539,4512.8889
8.7759,4410.5506
8.7979,4373.9764
8.8199,4442.06
8.8419,4405.0757
8.8639,4432.6047
8.8859,4457.882
8.9079,4311.5599
8.9299,4280.9911
8.9519,4411.4829
8.9739,4326.2222
8.9959,4360.649
9.0179,4270.6224
9.0399,4383.0079
9.0619,4370.1032
9.0839,4402.675
9.1059,4334.8151
9.1279,4391.2168
9.1499,4160.228
9.1719,4212.9208
9.1939,4208.5251
9.2159,4310.7748
9.2379,4247.3382
9.2599,4188.0016
9.2819,4375.5928
9.3039,4195.8275
9.3259,4222.9822
9.3479,4083.2423
9.3699,4018.3875
9.3919,4137.4352
9.4139,4228.942
9.4359,4160.4031
9.4579,4052.1593
9.4799,4071.5472
9.5019,4030.2832
9.5239,4065.3098
9.5459,4097.4985
9.5679,4060.8359
9.5899,4118.5397
9.6119,4037.4553
9.6339,4119.2183
9.6559,4031.5604
9.6779,3969.5143
9.6999,4068.7385
9.7219,4047.6814
9.7439,3997.1318
9.7659,4000.8682
9.7879,3927.5266
9.8099,4017.2331
9.8319,4060.0363
9.8539,3977.4985
9.8759,3942.0462
9.8979,4007.6186
9.9199,4075.5487
9.9419,4053.6755
9.9639,4047.9159
9.9859,4108.2508
10.0079,4121.2905
10.0299,4069.2104
10.0519,4070.4144
10.0739,4067.3353
10.0959,4067.9769
10.1179,4101.1062
10.1399,4091.7266
10.1619,4079.8338
10.1839,4111.1106
10.2059,4190.6785
10.2279,4349.4327
10.2499,4453.9056
10.2719,4341.9433
10.2939,4166.6391
10.3159,4104.8451
10.3379,4087.0826
10.3599,3899.0933
10.3819,3859.4248
10.4039,3797.7467
10.4259,3788.3402
10.4479,3741.789
10.4699,3684.6489
10.4919,3671.2512
10.5139,3618.4867
10.5359,3713.3629
10.5579,3628.1533
10.5799,3610.3628
10.6019,3601.0364
10.6239,3499.2979
10.6459,3583.1859
10.6679,3641.2724
10.6899,3557.764
10.7119,3527.3097
10.7339,3594.8339
10.7559,3579.8009
10.7779,3661.4956
10.7999,3462.8096
10.8219,3475.7935
10.8439,3520.5443
10.8659,3431.0589
10.8879,3558.9214
10.9099,3512.9026
10.9319,3602.5079
10.9539,3410.3786
10.9759,3466.5531
10.9979,3544.175
11.0199,3486.4685
11.0419,3447.115
11.0639,3344.7197
11.0859,3317.4161
11.1079,3516.3717
11.1299,3509.1632
11.1519,3416.1775
11.1739,3400.2654
11.1959,3338.8363
11.2179,3365.0875
11.2399,3378.3333
11.2619,3379.3275
11.2839,3438.1651
11.3059,3326.8585
11.3279,3354.7836
11.3499,3276.9372
11.3719,3343.8893
11.3939,3226.1298
11.4159,3252.7252
11.4379,3243.9145
11.4599,3266.2817
11.4819,3230.8103
11.5039,3286.1372
11.5259,3311.4503
11.5479,3259.0122
11.5699,3194.4455
11.5919,3238.2596
11.6139,3257.1121
11.6359,3273.4809
11.6579,3293.1868
11.6799,3251.35
11.7019,3217.9911
11.7239,3208.3432
11.7459,3184.3932
11.7679,3180.6343
11.7899,3224.5014
11.8119,3185.1834
11.8339,3147.646
11.8559,3110.7704
11.8779,3169.0335
11.8999,3140.8627
11.9219,3112.8614
11.9439,3206.6377
11.9659,3220.0855
11.9879,3223.7355
12.0099,3245.8063
12.0319,3169.466
12.0539,3214.2154
12.0759,3291.913
12.0979,3238.7521
12.1199,3250.3983
12.1419,3254.2114
12.1639,3261.0723
12.1859,3262.0482
12.2079,3245.558
12.2299,3213.3687
12.2519,3184.6986
12.2739,3128.1288
12.2959,3148.0753
12.3179,3113.8643
12.3399,3115.6244
12.3619,3160.4691
12.3839,3082.3618
12.4059,3119.0846
12.4279,3146.1165
12.4499,3179.3363
12.4719,3137.1219
12.4939,3130.7345
12.5159,3124.8432
12.5379,3119.5408
12.5599,3158.7817
12.5819,3122.6775
12.6039,3080.9228
12.6259,3106.2301
12.6479,3240.508
12.6699,3149.4758
12.6919,3115.6858
12.7139,3105.0983
12.7359,3088.0467
12.7579,3107.7228
12.7799,3156.1893
12.8019,3160.7974
12.8239,3105.2964
12.8459,3078.4101
12.8679,3143.9907
12.8899,3155.823
12.9119,3142.7118
12.9339,3057.3787
12.9559,3178.1254
12.9779,3169.7767
12.9999,3133.8929
13.0219,3249.4011
13.0439,3205.1745
13.0659,3183.0206
13.0879,3090.3673
13.1099,3144.946
13.1319,3234.8682
13.1539,3194.5014
13.1759,3115.883
13.1979,3149.8023
13.2199,3101.8186
13.2419,3113.6952
13.2639,3168.3393
13.2859,3230.3982
13.3079,3241.8467
13.3299,3286.2605
13.3519,3264.3821
13.3739,3306.3097
13.3959,3277.4931
13.4179,3292.5133
13.4399,3346.0211
13.4619,3347.4887
13.4839,3368.2921
13.5059,3359.878
13.5279,3346.1367
13.5499,3442.6697
13.5719,3442.7123
13.5939,3290.8101
13.6159,3280.8334
13.6379,3356.2301
13.6599,3394.2286
13.6819,3407.6903
13.7039,3422.0143
13.7259,3468
13.7479,3539.6992
13.7699,3564.9774
13.7919,3582.4745
13.8139,3558.879
13.8359,3592.4671
13.8579,3656.4307
13.8799,3815.717
13.9019,3918.886
13.9239,3895.6927
13.9459,3933.6343
13.9679,4055.3246
13.9899,4116.2793
14.0119,4204.8334
14.0339,4242.821
14.0559,4437.3798
14.0779,4583.9824
14.0999,4649.7542
14.1219,4748.2243
14.1439,4988.4206
14.1659,5254.3581
14.1879,5409.3359
14.2099,5593.2362
14.2319,5727.5901
14.2539,5986.0022
14.2759,6201.4294
14.2979,6367.2696
14.3199,6386.1126
14.3419,6384.2006
14.3639,6162.3847
14.3859,6028.2369
14.4079,5590.9834
14.4299,5340.9133
14.4519,4879.1766
14.4739,4638.0794
14.4959,4415.1365
14.5179,4209.399
14.5399,3883.4409
14.5619,3730.0874
14.5839,3562.8501
14.6059,3608.3362
14.6279,3486.0879
14.6499,3353.463
14.6719,3245.5751
14.6939,3134.6982
14.7159,3151.6337
14.7379,3072.115
14.7599,2998.063
14.7819,3036.239
14.8039,3039.8553
14.8259,2906.3973
14.8479,2936.464
14.8699,2822.3894
14.8919,2816.3417
14.9139,2805.419
14.9359,2827.6975
14.9579,2704.24
14.9799,2762.6455
15.0019,2735.2359
15.0239,2695.8422
15.0459,2700.6372
15.0679,2722.5708
15.0899,2725.9222
15.1119,2651.0619
15.1339,2647.2124
15.1559,2670.7984
15.1779,2674.3638
15.1999,2641.9749
15.2219,2649.1338
15.2439,2683.4872
15.2659,2692.8673
15.2879,2692.6036
15.3099,2679.6461
15.3319,2739.0561
15.3539,2703.4906
15.3759,2552.136
15.3979,2510.6166
15.4199,2551.8938
15.4419,2563.5694
15.4639,2595.7876
15.4859,2566.1356
15.5079,2520.3013
15.5299,2543.8201
15.5519,2510.2172
15.5739,2467.4681
15.5959,2563.8453
15.6179,2591.9203
15.6399,2564.7512
15.6619,2580.1151
15.6839,2566.97
15.7059,2503.7069
15.7279,2513.7242
15.7499,2507.6647
15.7719,2568.9583
15.7939,2586.4926
15.8159,2585.3392
15.8379,2652.4593
15.8599,2619.9159
15.8819,2648.1249
15.9039,2626.6986
15.9259,2523.4099
15.9479,2486.0457
15.9699,2601.9588
15.9919,2552.7757
16.0139,2663.5754
16.0359,2730.4597
16.0579,2691.646
16.0799,2719.6987
16.1019,2815.065
16.1239,2903.9942
16.1459,2796.8307
16.1679,2753.7246
16.1899,2529.1472
16.2119,2525.2778
16.2339,2448.5043
16.2559,2466.3186
16.2779,2453.2615
16.2999,2393.3834
16.3219,2393.6696
16.3439,2340.0011
16.3659,2447.8781
16.3879,2443.6578
16.4099,2431.8151
16.4319,2361.0777
16.4539,2378.1505
16.4759,2399.966
16.4979,2367.0816
16.5199,2347.2434
16.5419,2381.0747
16.5639,2340.0123
16.5859,2343.0502
16.6079,2395.3196
16.6299,2394.8977
16.6519,2331.1991
16.6739,2308.3304
16.6959,2373.4927
16.7179,2438.4689
16.7399,2349.7325
16.7619,2335.2655
16.7839,2347.0162
16.8059,2357.1317
16.8279,2365.4701
16.8499,2408.292
16.8719,2383.8357
16.8939,2348.2311
16.9159,2347.5427
16.9379,2351.4032
16.9599,2391.913
16.9819,2372.7669
17.0039,2332.3923
17.0259,2335.1584
17.0479,2386.7523
17.0699,2404.8289
17.0919,2366.5791
17.1139,2347.1062
17.1359,2344.9552
17.1579,2333.9863
17.1799,2299.3568
17.2019,2290.8083
17.2239,2295.8411
17.2459,2291.7169
17.2679,2281.6597
17.2899,2291.5497
17.3119,2318.733
17.3339,2291.8623
17.3559,2273.0821
17.3779,2232.2684
17.3999,2289.3182
17.4219,2343
17.4439,2294.2787
17.4659,2244.0688
17.4879,2249.7478
17.5099,2291.8113
17.5319,2252.7654
17.5539,2279.7592
17.5759,2327.0207
17.5979,2276.6223
17.6199,2292.4779
17.6419,2280.2389
17.6639,2175.7875
17.6859,2200.2921
17.7079,2248.9897
17.7299,2273.8506
17.7519,2275.5855
17.7739,2195.7403
17.7959,2158.0944
17.8179,2305.5046
17.8399,2272.5132
17.8619,2223.0176
17.8839,2132.6577
17.9059,2227.0119
17.9279,2237.2906
17.9499,2257.1397
17.9719,2179.2152
17.9939,2181.4602
18.0159,2234.3772
18.0379,2160.7964
18.0599,2239.0822
18.0819,2193.5191
18.1039,2093.1579
18.1259,2200.3442
18.1479,2226.6677
18.1699,2284.8583
18.1919,2179.1769
18.2139,2147.5802
18.2359,2188.7832
18.2579,2218.8869
18.2799,2177.4971
18.3019,2191.4484
18.3239,2199.3535
18.3459,2219.7492
18.3679,2158.5753
18.3899,2184.8054
18.4119,2209.4464
18.4339,2189.3186
18.4559,2213.4336
18.4779,2188.6892
18.4999,2153.3407
18.5219,2176.5153
18.5439,2223.8919
18.5659,2245.9528
18.5879,2212.1248
18.6099,2159.4139
18.6319,2140.0223
18.6539,2229.4425
18.6759,2204.8003
18.6979,2176
18.7199,2163.0875
18.7419,2149.2842
18.7639,2158.3658
18.7859,2190.9175
18.8079,2211.0521
18.8299,2202.1504
18.8519,2192.9675
18.8739,2200.2449
18.8959,2176.8244
18.9179,2167.7995
18.9399,2175.4891
18.9619,2150.4838
18.9839,2173.5619
19.0059,2122.5023
19.0279,2162.9383
19.0499,2180.991
19.0719,2194.3276
19.0939,2216.5073
19.1159,2183.4651
19.1379,2182.3166
19.1599,2179.2684
19.1819,2147.6243
19.2039,2170.89
19.2259,2208.9381
19.2479,2180.1258
19.2699,2161.9587
19.2919,2235.506
19.3139,2208.3165
19.3359,2155.9272
19.3579,2135.469
19.3799,2142.4297
19.4019,2154.9931
19.4239,2172.7788
19.4459,2193.0246
19.4679,2201.8176
19.4899,2198.3451
19.5119,2194.6357
19.5339,2206.8063
19.5559,2202.6858
19.5779,2172.9508
19.5999,2143.5565
19.6219,2127.9557
19.6439,2043.2624
19.6659,2163.7436
19.6879,2132.4734
19.7099,2163.7464
19.7319,2157.0678
19.7539,2169.8496
19.7759,2160.7084
19.7979,2173.2704
19.8199,2142.3141
19.8419,2203.238
19.8639,2124.2496
19.8859,2141.944
19.9079,2098.4204
19.9299,2144.6442
19.9519,2213.6399
19.9739,2066.777
19.9959,2185.2979
20.0179,2169.0442
20.0399,2103.086
20.0619,2100.1535
20.0839,2164.6622
20.1059,2134.7207
20.1279,2128.977
20.1499,2194.351
20.1719,2168.9583
20.1939,2224.0431
20.2159,2139.7877
20.2379,2207.4238
20.2599,2218.67
20.2819,2165.6135
20.3039,2145.3737
20.3259,2170.8131
20.3479,2129.8821
20.3699,2178.5811
20.3919,2178.3442
20.4139,2216.2832
20.4359,2198.174
20.4579,2210.7808
20.4799,2285.8114
20.5019,2349.646
20.5239,2280.0554
20.5459,2236.2626
20.5679,2318.0021
20.5899,2372.5133
20.6119,2346.1902
20.6339,2306.884
20.6559,2322.2724
20.6779,2298.112
20.6999,2269.4882
20.7219,2237.8376
20.7439,2210.8673
20.7659,2251.6382
20.7879,2195.8582
20.8099,2174.301
20.8319,2214.6421
20.8539,2194.5536
20.8759,2162.0943
20.8979,2205.1811
20.9199,2194.5269
20.9419,2193.0915
20.9639,2193.233
20.9859,2213.7543
21.0079,2234.0088
21.0299,2224.002
21.0519,2182.3883
21.0739,2149.4454
21.0959,2190.7872
21.1179,2207.8318
21.1399,2213.3717
21.1619,2204.2212
21.1839,2182.3889
21.2059,2187.0177
21.2279,2269.4146
21.2499,2276.2635
21.2719,2186.6901
21.2939,2168.2694
21.3159,2163.6322
21.3379,2118.3539
21.3599,2174.4647
21.3819,2231.475
21.4039,2168.1636
21.4259,2203.8732
21.4479,2163.2959
21.4699,2155.118
21.4919,2163.0487
21.5139,2196.6372
21.5359,2165.0825
21.5579,2219.7326
21.5799,2147.5795
21.6019,2148.7345
21.6239,2180.9455
21.6459,2182
21.6679,2119.4645
21.6899,2094.8508
21.7119,2264.4531
21.7339,2122.5105
21.7559,2238.2925
21.7779,2244.6214
21.7999,2237.2035
21.8219,2224.1907
21.8439,2203.3638
21.8659,2210.7169
21.8879,2244.3864
21.9099,2259.6018
21.9319,2279.7904
21.9539,2222.4308
21.9759,2277.2708
21.9979,2235.3009
22.0199,2253.1928
22.0419,2288.2331
22.0639,2296.8731
22.0859,2259.763
22.1079,2232.3771
22.1299,2226.7581
22.1519,2235
22.1739,2233.6234
22.1959,2248.6948
22.2179,2292.3009
22.2399,2264.4586
22.2619,2245.5547
22.2839,2317.4607
22.3059,2356.6608
22.3279,2402.7906
22.3499,2414.702
22.3719,2406.4018
22.3939,2464.3363
22.4159,2484.3579
22.4379,2479.4631
22.4599,2489.0531
22.4819,2489.4464
22.5039,2497.5006
22.5259,2584.8055
22.5479,2659.0438
22.5699,2638.7442
22.5919,2640.1461
22.6139,2682.2537
22.6359,2692.8009
22.6579,2787.0445
22.6799,2875.3924
22.7019,2933.9057
22.7239,3045.1551
22.7459,3079.3687
22.7679,3104.8595
22.7899,3222.9206
22.8119,3255.3613
22.8339,3294.4564
22.8559,3419.8262
22.8779,3560.9343
22.8999,3761.932
22.9219,3909.1742
22.9439,4079.5741
22.9659,4162.8408
22.9879,4372.3146
23.0099,4663.5177
23.0319,4852.2008
23.0539,4862.9232
23.0759,5053.7098
23.0979,5252.4782
23.1199,5252.2197
23.1419,5127.1099
23.1639,5041.3539
23.1859,5044.9735
23.2079,4996.82
23.2299,4934.3519
23.2519,4709.2371
23.2739,4652.3038
23.2959,4636.3697
23.3179,4506.0617
23.3399,4548.6781
23.3619,4520.1337
23.3839,4446.6503
23.4059,4318.693
23.4279,4395.9765
23.4499,4357.4837
23.4719,4314.0488
23.4939,4411.875
23.5159,4324.2477
23.5379,4291.7118
23.5599,4212.6113
23.5819,4320.3097
23.6039,4321.288
23.6259,4275
23.6479,4279.1505
23.6699,4311.9999
23.6919,4287.3021
23.7139,4366.9613
23.7359,4193.9869
23.7579,4264.4425
23.7799,4248.7033
23.8019,4140.882
23.8239,4168.0547
23.8459,4207.7434
23.8679,4210.0954
23.8899,4188.8974
23.9119,4047.1136
23.9339,4072.9312
23.9559,4131.7443
23.9779,4273.1502
23.9999,4244.0726
24.0219,4367.4601
24.0439,4401.7289
24.0659,4546.1998
24.0879,4698.0018
24.1099,4999.9625
24.1319,5502.9973
24.1539,6125.734
24.1759,7199.6704
24.1979,8641.2032
24.2199,10270.3534
24.2419,11497.582
24.2639,11562.265
24.2859,10364.6939
24.3079,8438.4939
24.3299,6801.4117
24.3519,5559.5409
24.3739,4913.1678
24.3959,4832.9179
24.4179,4833.8908
24.4399,4729.8139
24.4619,4576.926
24.4839,4492.5353
24.5059,4340.5984
24.5279,4141.8498
24.5499,3921.5168
24.5719,3801.4734
24.5939,3818.1122
24.6159,3690.8044
24.6379,3685.2745
24.6599,3767.181
24.6819,3679.7598
24.7039,3621.8009
24.7259,3663.1683
24.7479,3535.0449
24.7699,3507.9293
24.7919,3552.4701
24.8139,3434.2072
24.8359,3417.6889
24.8579,3468.6156
24.8799,3543.1825
24.9019,3416.9053
24.9239,3511.6842
24.9459,3442.2967
24.9679,3497.1019
24.9899,3448.3568
25.0119,3348.3307
25.0339,3398.6137
25.0559,3384.0929
25.0779,3500.3994
25.0999,3382.0455
25.1219,3372.6893
25.1439,3358.0462
25.1659,3355.1062
25.1879,3337.7345
25.2099,3270.9389
25.2319,3323.1078
25.2539,3235.3499
25.2759,3202.9164
25.2979,3193.5369
25.3199,3216.3317
25.3419,3144.3778
25.3639,3279.8053
25.3859,3290.4867
25.4079,3256.5895
25.4299,3258.1358
25.4519,3308.6783
25.4739,3254.8242
25.4959,3367.143
25.5179,3347.6334
25.5399,3461.9631
25.5619,3688.6373
25.5839,3783.6826
25.6059,3898.1124
25.6279,4015.1679
25.6499,3910.6538
25.6719,3822.6764
25.6939,3552.6665
25.7159,3415.1471
25.7379,3245.9458
25.7599,3201.5089
25.7819,3173.0735
25.8039,3108.3241
25.8259,3132.9055
25.8479,3078.1135
25.8699,3119.1153
25.8919,3206.2595
25.9139,3214.8704
25.9359,3263.5869
25.9579,3172.9467
25.9799,3078.4812
26.0019,3066.2194
26.0239,3114.9676
26.0459,3069.9359
26.0679,3011.0168
26.0899,3035.8939
26.1119,3012.0647
26.1339,3037.2549
26.1559,3102
26.1779,3048.9182
26.1999,3025.4096
26.2219,3063.9381
26.2439,2990.2893
26.2659,2954.302
26.2879,3013.1137
26.3099,2982.4285
26.3319,2920.8701
26.3539,2882.0176
26.3759,2928.4225
26.3979,2939.5919
26.4199,2939.2449
26.4419,2964.8142
26.4639,2888.6463
26.4859,2891.4839
26.5079,2813.7711
26.5299,2811.4101
26.5519,2890.748
26.5739,2933.3383
26.5959,3016.0739
26.6179,2972.2535
26.6399,3064.0199
26.6619,3084.6942
26.6839,2987.9865
26.7059,3074.5971
26.7279,3032.1562
26.7499,3081.0532
26.7719,3035.7536
26.7939,3006.1583
26.8159,2964.7757
26.8379,2949.3087
26.8599,2969.4396
26.8819,2890.4954
26.9039,2956.3497
26.9259,3022.5321
26.9479,3023.2301
26.9699,3067.8742
26.9919,3342.7115
27.0139,3185.51
27.0359,3171.0919
27.0579,3151.6301
27.0799,3056.134
27.1019,2937.6103
27.1239,2757.7952
27.1459,2847.6903
27.1679,2860.6539
27.1899,2865.8829
27.2119,2818.3496
27.2339,2849.6916
27.2559,2987.9314
27.2779,2866.655
27.2999,2953.0788
27.3219,3050.3542
27.3439,3161.6463
27.3659,3280.657
27.3879,3354.8189
27.4099,3278.7432
27.4319,3166.4485
27.4539,3058.8684
27.4759,3093.7444
27.4979,2941.2507
27.5199,2960.2258
27.5419,2973.9112
27.5639,2833.3691
27.5859,2808.2233
27.6079,2832.7919
27.6299,2809.9973
27.6519,2893.7749
27.6739,2888.5396
27.6959,2874.813
27.7179,2970.9627
27.7399,2925.1811
27.7619,2887.2451
27.7839,2919.9506
27.8059,2881.9972
27.8279,2892.5186
27.8499,2896.3915
27.8719,2983.9073
27.8939,3037.5939
27.9159,3059.0153
27.9379,3044.2654
27.9599,3030.7597
27.9819,3020.992
28.0039,3031.0768
28.0259,3096.9529
28.0479,3137.0266
28.0699,3219.0121
28.0919,3275
28.1139,3272.0305
28.1359,3213.6237
28.1579,3215.3462
28.1799,3214.3996
28.2019,3311.8942
28.2239,3345.8195
28.2459,3344.353
28.2679,3367.9986
28.2899,3361.4631
28.3119,3374.7267
28.3339,3173.6897
28.3559,3083.7089
28.3779,3039.4817
28.3999,3054.3939
28.4219,3078.5536
28.4439,2993.4988
28.4659,3038.3601
28.4879,3110.7912
28.5099,3194.9176
28.5319,3171.2831
28.5539,3128.5712
28.5759,3260.8789
28.5979,3111.2739
28.6199,3154.128
28.6419,3211.1112
28.6639,3394.5329
28.6859,3503.5204
28.7079,3588.8384
28.7299,3539.6547
28.7519,3795.4445
28.7739,3929.3297
28.7959,4001.2701
28.8179,4253.7537
28.8399,4401.929
28.8619,4615.7907
28.8839,4690.4565
28.9059,5039.2216
28.9279,5207.2612
28.9499,5273.1338
28.9719,5299.3336
28.9939,5197.8049
29.0159,5007.1513
29.0379,4913.6041
29.0599,4642.7813
29.0819,4441.6585
29.1039,4280.8644
29.1259,4080.1944
29.1479,3930.6164
29.1699,3842.8316
29.1919,3751.9662
29.2139,3759.9337
29.2359,3578.6138
29.2579,3486.9026
29.2799,3506.9865
29.3019,3592.061
29.3239,3560.7519
29.3459,3488.5027
29.3679,3584.8542
29.3899,3619.6046
29.4119,3561.6612
29.4339,3518.4964
29.4559,3475.7154
29.4779,3553.0367
29.4999,3574.2469
29.5219,3461.9824
29.5439,3484.8574
29.5659,3451.2368
29.5879,3421.1048
29.6099,3431.5545
29.6319,3371.2874
29.6539,3388.6789
29.6759,3432.9447
29.6979,3357.5496
29.7199,3329.2654
29.7419,3328.5999
29.7639,3353.3147
29.7859,3328.1503
29.8079,3235.4039
29.8299,3223.893
29.8519,3193.1664
29.8739,3075.8916
29.8959,3000.0628
29.9179,2937.4689
29.9399,2860.7171
29.9619,2783.3971
29.9839,2756.9159
30.0059,2692.9064
30.0279,2730.955
30.0499,2753.1386
30.0719,2670.341
30.0939,2659.8034
30.1159,2657.177
30.1379,2613.5918
30.1599,2682.278
30.1819,2680.5309
30.2039,2687.5158
30.2259,2710.0246
30.2479,2663.1149
30.2699,2692.1152
30.2919,2743.536
30.3139,2754.646
30.3359,2743.3058
30.3579,2768.9706
30.3799,2791.1977
30.4019,2766.0904
30.4239,2661.1708
30.4459,2836.319
30.4679,2826.1833
30.4899,2920.662
30.5119,2969.1461
30.5339,2954.9734
30.5559,3009.5763
30.5779,3058.5842
30.5999,3070.8107
30.6219,3008.3096
30.6439,3168.9
30.6659,3292.5962
30.6879,3429.7021
30.7099,3678.576
30.7319,4042.8182
30.7539,4508.1701
30.7759,4538.1966
30.7979,4723.3811
30.8199,5013.064
30.8419,5544.5974
30.8639,6308.0522
30.8859,7540.9244
30.9079,9443.3989
30.9299,11981.3328
30.9519,16135.9685
30.9739,22490.2652
30.9959,29831.8317
31.0179,33804.181
31.0399,31648.8495
31.0619,25098.5361
31.0839,19562.8479
31.1059,15254.7221
31.1279,9893.3784
31.1499,5991.338
31.1719,4478.8835
31.1939,3934.7161
31.2159,3679.5548
31.2379,3569.0382
31.2599,3502.2535
31.2819,3375.9681
31.3039,3259.4867
31.3259,3238.0176
31.3479,3151.4888
31.3699,3093.8203
31.3919,3133.2649
31.4139,3096.2477
31.4359,3104.3409
31.4579,3155.1751
31.4799,3208.6339
31.5019,3233.3716
31.5239,3177.0824
31.5459,3092.5613
31.5679,2959.3226
31.5899,2884.1102
31.6119,2867.3318
31.6339,2788.7107
31.6559,2699.4698
31.6779,2655.8839
31.6999,2658.7523
31.7219,2725.1349
31.7439,2742.4763
31.7659,2698.289
31.7879,2797.6651
31.8099,2919.3158
31.8319,3022.8203
31.8539,3307.7521
31.8759,3580.9184
31.8979,3899.2044
31.9199,4048.8168
31.9419,4560.0055
31.9639,5554.855
31.9859,6360.9633
32.0079,6073.7326
32.0299,5174.8296
32.0519,4920.7118
32.0739,4426.2228
32.0959,3592.9183
32.1179,3114.9431
32.1399,2918.4657
32.1619,2815.2977
32.1839,2749.0672
32.2059,2885.3268
32.2279,3098.6362
32.2499,3400.6241
32.2719,3895.7927
32.2939,4254.8592
32.3159,4242.2816
32.3379,4112.1924
32.3599,3982.3419
32.3819,4008.3295
32.4039,3690.9978
32.4259,3597.0886
32.4479,3633.3412
32.4699,4057.0425
32.4919,4587.6879
32.5139,5477.7842
32.5359,6517.1227
32.5579,7400.2447
32.5799,7281.2412
32.6019,6566.6588
32.6239,5803.4049
32.6459,5471.3427
32.6679,4783.2084
32.6899,3768.6447
32.7119,3257.0778
32.7339,3104.4204
32.7559,2921.5422
32.7779,2707.45
32.7999,2617.5021
32.8219,2651.4453
32.8439,2594.284
32.8659,2558.4583
32.8879,2586.3496
32.9099,2592.4533
32.9319,2550.4382
32.9539,2482.369
32.9759,2541.7658
32.9979,2438.6888
33.0199,2327.0665
33.0419,2356.6529
33.0639,2317.545
33.0859,2254.9469
33.1079,2209.7076
33.1299,2144.3797
33.1519,2181.6342
33.1739,2177.6873
33.1959,2188.4913
33.2179,2220.236
33.2399,2183.601
33.2619,2145.1004
33.2839,2187.5267
33.3059,2248.6432
33.3279,2175.0472
33.3499,2101.6314
33.3719,2157.1048
33.3939,2148.9182
33.4159,2092.5294
33.4379,2052.5181
33.4599,2070.1929
33.4819,2067.6902
33.5039,2057.6574
33.5259,2003.9545
33.5479,2007.0473
33.5699,1990.8327
33.5919,1970.3088
33.6139,1999.6668
33.6359,2036.4057
33.6579,2000.6862
33.6799,1973.6681
33.7019,2031.8458
33.7239,2050.175
33.7459,1933.976
33.7679,1944.4313
33.7899,2029.0848
33.8119,2032.8997
33.8339,2095.1143
33.8559,2032.8129
33.8779,2044.7523
33.8999,2013.1567
33.9219,2054.4859
33.9439,2064.851
33.9659,2020.107
33.9879,2037.5173
34.0099,2026.7935
34.0319,2097.0159
34.0539,1993.6762
34.0759,2034.7878
34.0979,1968.7196
34.1199,1928.8736
34.1419,1974.1211
34.1639,1910.7457
34.1859,1983.954
34.2079,1942.0633
34.2299,1973.0433
34.2519,1977.7395
34.2739,2008.5044
34.2959,1994.38
34.3179,1985.359
34.3399,2043.7819
34.3619,2105.9072
34.3839,1975.3874
34.4059,1982.4927
34.4279,2010.0285
34.4499,2010.0876
34.4719,2051.4734
34.4939,2032.124
34.5159,2060.6169
34.5379,2011.3421
34.5599,1996.9518
34.5819,2015.7887
34.6039,2053.7035
34.6259,2051.7464
34.6479,2068.606
34.6699,2029.7258
34.6919,2065.7572
34.7139,2093.3127
34.7359,2108.9589
34.7579,2140.1808
34.7799,2116.9505
34.8019,2128.8465
34.8239,2117.1276
34.8459,2131.4687
34.8679,2051.9601
34.8899,2026.0225
34.9119,2018.5105
34.9339,2093.7967
34.9559,2071.4631
34.9779,1946.2811
34.9999,1989.2998
35.0219,2036.1758
35.0439,2050.6802
35.0659,2068.4246
35.0879,2051.4298
35.1099,2106.123
35.1319,2135.118
35.1539,2139
35.1759,2146.5507
35.1979,2154.6549
35.2199,2142.466
35.2419,2116.4424
35.2639,2047.3272
35.2859,1991.9803
35.3079,2050.0519
35.3299,2024.2092
35.3519,1984.2753
35.3739,1975.2507
35.3959,2011.0592
35.4179,2059.656
35.4399,2087.4234
35.4619,2087.0088
35.4839,2136.6442
35.5059,2223.133
35.5279,2209.7285
35.5499,2198.9931
35.5719,2117.0976
35.5939,2083.2714
35.6159,2004.84
35.6379,1913.0273
35.6599,1937.9161
35.6819,1824.6958
35.7039,1837.213
35.7259,1789.1237
35.7479,1912.9886
35.7699,1888.8268
35.7919,1874.0486
35.8139,1913.3099
35.8359,2047.8534
35.8579,1969.8847
35.8799,2039.4098
35.9019,1984.5239
35.9239,2038.4338
35.9459,1985.7373
35.9679,2026.2179
35.9899,2080.6816
36.0119,1977.422
36.0339,2038.9453
36.0559,1827.3939
36.0779,1864.6397
36.0999,1729.1669
36.1219,1810.9614
36.1439,1732.4077
36.1659,1771.5385
36.1879,1665.2833
36.2099,1729.1802
36.2319,1811.948
36.2539,1837.8404
36.2759,1763.0798
36.2979,1826.4927
36.3199,1830.255
36.3419,1800.8733
36.3639,1867.9142
36.3859,1954.0915
36.4079,1952.6104
36.4299,1908.9962
36.4519,1928.3361
36.4739,1900.5086
36.4959,1948.4899
36.5179,1892.7907
36.5399,1911.5745
36.5619,1867.4476
36.5839,1875.7741
36.6059,1804.6617
36.6279,1810.3098
36.6499,1801.3184
36.6719,1798.7613
36.6939,1812.3842
36.7159,1768.183
36.7379,1759.3281
36.7599,1695.3028
36.7819,1745.8263
36.8039,1775.8459
36.8259,1783.8784
36.8479,1848.9469
36.8699,1869.4298
36.8919,1882.5295
36.9139,1883.6756
36.9359,1941.6487
36.9579,2066.7015
36.9799,2082.9216
37.0019,1981.3724
37.0239,1940.0025
37.0459,1935.9911
37.0679,1814.1125
37.0899,1762.3895
37.1119,1799.2493
37.1339,1762.8739
37.1559,1764.0488
37.1779,1731.3213
37.1999,1641.6694
37.2219,1631.8369
37.2439,1659.3673
37.2659,1649.3254
37.2879,1627.6145
37.3099,1678.3306
37.3319,1664.7826
37.3539,1653
37.3759,1730.6124
37.3979,1719.6479
37.4199,1666.3838
37.4419,1650.9734
37.4639,1685.9746
37.4859,1715.5773
37.5079,1715.7891
37.5299,1632.1158
37.5519,1695.1423
37.5739,1619.9732
37.5959,1695.3523
37.6179,1637.3233
37.6399,1641.9071
37.6619,1682.9136
37.6839,1656.8441
37.7059,1627.3687
37.7279,1647.2321
37.7499,1785.8116
37.7719,1612.8373
37.7939,1672.9823
37.8159,1664.6275
37.8379,1708.4514
37.8599,1720.7273
37.8819,1615.767
37.9039,1630.7611
37.9259,1644.4229
37.9479,1666.4314
37.9699,1590.8083
37.9919,1615.0993
38.0139,1606.5014
38.0359,1597.0974
38.0579,1603.8505
38.0799,1600.412
38.1019,1584.9115
38.1239,1584.8758
38.1459,1611.514
38.1679,1554.2804
38.1899,1589.8928
38.2119,1579.1055
38.2339,1551.0975
38.2559,1606.9012
38.2779,1619.6342
38.2999,1627.7006
38.3219,1614.4314
38.3439,1564.7109
38.3659,1597.1153
38.3879,1626.635
38.4099,1607.8822
38.4319,1613.5749
38.4539,1591.5618
38.4759,1675.915
38.4979,1649.7491
38.5199,1599.7015
38.5419,1603.3364
38.5639,1626.3467
38.5859,1623.5555
38.6079,1569.1772
38.6299,1551.6108
38.6519,1568.1164
38.6739,1527.8003
38.6959,1548.0135
38.7179,1531.9259
38.7399,1493.9755
38.7619,1534.5105
38.7839,1605.956
38.8059,1568.272
38.8279,1529.2877
38.8499,1576.5567
38.8719,1589.3323
38.8939,1573.1356
38.9159,1589.6373
38.9379,1628.6442
38.9599,1624.7049
38.9819,1567.7363
39.0039,1552.1357
39.0259,1542.1946
39.0479,1543.0256
39.0699,1528.8436
39.0919,1503.0943
39.1139,1564.0278
39.1359,1525.6069
39.1579,1523.3364
39.1799,1499.5004
39.2019,1488.6342
39.2239,1509.624
39.2459,1525.5713
39.2679,1580.0046
39.2899,1556.6518
39.3119,1504.0972
39.3339,1560.6757
39.3559,1617.3556
39.3779,1591.1838
39.3999,1499.776
39.4219,1528.2833
39.4439,1511.6764
39.4659,1651.3495
39.4879,1587.9747
39.5099,1657.9717
39.5319,1533.5419
39.5539,1655.1272
39.5759,1667.973
39.5979,1703.7443
39.6199,1677.646
39.6419,1661.5526
39.6639,1647.9257
39.6859,1626.944
39.7079,1640.5742
39.7299,1629.0209
39.7519,1690.3727
39.7739,1559.0083
39.7959,1694.2523
39.8179,1717.3363
39.8399,1718.2213
39.8619,1743.9655
39.8839,1714.9646
39.9059,1715.9146
39.9279,1785.9738
39.9499,1870.1091
39.9719,1837.9968
39.9939,1766.004
40.0159,1760.1812
40.0379,1726.3394
40.0599,1769.1244
40.0819,1781.0946
40.1039,1841.3817
40.1259,1890.1446
40.1479,1892.6075
40.1699,1867.1643
40.1919,1921.6271
40.2139,1925.6899
40.2359,1873.7672
40.2579,1970.1567
40.2799,2016.7668
40.3019,1989.4819
40.3239,2019.125
40.3459,2062.953
40.3679,2085.7595
40.3899,2082.1416
40.4119,2098.5045
40.4339,2157.9816
40.4559,2238.481
40.4779,2280.5517
40.4999,2280.5319
40.5219,2238.2231
40.5439,2262.9132
40.5659,2281.9743
40.5879,2317.4787
40.6099,2395.2391
40.6319,2482.5141
40.6539,2551.9913
40.6759,2663.6509
40.6979,2787.312
40.7199,2829.8201
40.7419,2944.2719
40.7639,3012.9351
40.7859,3051.3512
40.8079,3039.1946
40.8299,3050.4347
40.8519,3011.2702
40.8739,3011.9588
40.8959,2983.9846
40.9179,2918.6891
40.9399,2798.4553
40.9619,2838.5568
40.9839,2769.036
41.0059,2702.5839
41.0279,2667.7374
41.0499,2599.6006
41.0719,2539.3332
41.0939,2454.7392
41.1159,2469.3113
41.1379,2430.4895
41.1599,2432.825
41.1819,2450.1063
41.2039,2403.9246
41.2259,2416.4681
41.2479,2437.565
41.2699,2497.5253
41.2919,2441.7127
41.3139,2584.2807
41.3359,2494.8404
41.3579,2506.9037
41.3799,2438.9729
41.4019,2432.9733
41.4239,2375.94
41.4459,2373.112
41.4679,2352.3451
41.4899,2341.6687
41.5119,2351.3166
41.5339,2345.0321
41.5559,2256.2702
41.5779,2339.4305
41.5999,2300.8497
41.6219,2322.3598
41.6439,2288.6484
41.6659,2266.1034
41.6879,2292.0608
41.7099,2253.5911
41.7319,2298.7303
41.7539,2338.4964
41.7759,2303.8531
41.7979,2324.6461
41.8199,2378.3942
41.8419,2480.2303
41.8639,2515.587
41.8859,2503.7119
41.9079,2474.4623
41.9299,2451.1509
41.9519,2534.9507
41.9739,2517.7336
41.9959,2533.1947
42.0179,2517.4796
42.0399,2503.6866
42.0619,2504.7872
42.0839,2405.488
42.1059,2401.8135
42.1279,2387.8476
42.1499,2275.8337
42.1719,2229.9492
42.1939,2194.3362
42.2159,2154.6517
42.2379,2159.8419
42.2599,2179.1179
42.2819,2100.9347
42.3039,2082.5578
42.3259,2108.4572
42.3479,2087.8908
42.3699,2060.2447
42.3919,2121.7748
42.4139,2136.6006
42.4359,2147.486
42.4579,2141.578
42.4799,2149.1383
42.5019,2154.3549
42.5239,2206.9428
42.5459,2277.4397
42.5679,2410.7518
42.5899,2546.0446
42.6119,2798.0502
42.6339,3062.4403
42.6559,3556.7924
42.6779,4194.2263
42.6999,4414.0582
42.7219,3908.9358
42.7439,3312.5267
42.7659,3147.1316
42.7879,3232.8367
42.8099,2968.4413
42.8319,2548.4863
42.8539,2313.3357
42.8759,2093.4118
42.8979,1976.0646
42.9199,2050.3101
42.9419,2064.8781
42.9639,2006.2358
42.9859,2134.3987
43.0079,2008.0978
43.0299,2013.5448
43.0519,2070.4323
43.0739,2034.0235
43.0959,1955.835
43.1179,2120.9416
43.1399,2094.3504
43.1619,2119.8935
43.1839,2013.7128
43.2059,2141.2813
43.2279,2150.2963
43.2499,2103.5897
43.2719,2041.8099
43.2939,2088.0356
43.3159,2129.9938
43.3379,2040.8356
43.3599,1988.7545
43.3819,1946.8761
43.4039,1938.6458
43.4259,1895.8605
43.4479,1907.8715
43.4699,1870.5755
43.4919,1941.4783
43.5139,1913.7461
43.5359,1866.7291
43.5579,1899.8892
43.5799,1976.0132
43.6019,1961.0255
43.6239,1983.5009
43.6459,2059.8436
43.6679,2039.4753
43.6899,2038.9825
43.7119,2055.7299
43.7339,2019.2194
43.7559,2044.3314
43.7779,2043.5486
43.7999,2055.5862
43.8219,2058.3134
43.8439,1993.7757
43.8659,2008.3041
43.8879,2084.5823
43.9099,2089.6782
43.9319,2083.4939
43.9539,2132.1043
43.9759,2169.7259
43.9979,2202.0432
44.0199,2180.5112
44.0419,2208.8734
44.0639,2283.8099
44.0859,2304.1386
44.1079,2281.8215
44.1299,2202.1923
44.1519,2187.7726
44.1739,2213.938
44.1959,2183.2747
44.2179,2153.5899
44.2399,2120.2668
44.2619,2115.6952
44.2839,2139.9514
44.3059,2049.501
44.3279,2054.9792
44.3499,2153.8056
44.3719,2178.8761
44.3939,2124.6822
44.4159,2109.0158
44.4379,2144.124
44.4599,2032.8269
44.4819,2050.9836
44.5039,2055.9822
44.5259,2066.0237
44.5479,2095.8103
44.5699,2131.3541
44.5919,2124.6017
44.6139,2091.7609
44.6359,2245.775
44.6579,2208.0371
44.6799,2231.359
44.7019,2278.4839
44.7239,2399.4483
44.7459,2321.2042
44.7679,2358.4028
44.7899,2486.9208
44.8119,2448.2451
44.8339,2595.4873
44.8559,2431.6788
44.8779,2443.1132
44.8999,2588.825
44.9219,2542.8022
44.9439,2527.0516
44.9659,2605.8761
44.9879,2590.0759
45.0099,2499.2279
45.0319,2453.1213
45.0539,2546.8881
45.0759,2343.2807
45.0979,2460.8788
45.1199,2391.1898
45.1419,2272.2154
45.1639,2285.1412
45.1859,2175.4895
45.2079,2127.8727
45.2299,2132.4335
45.2519,2098.3491
45.2739,2092.1541
45.2959,2036.3186
45.3179,2034.2859
45.3399,1987.0398
45.3619,1990.8143
45.3839,2038.6344
45.4059,2044.9485
45.4279,1971.95
45.4499,2023.891
45.4719,2041.2128
45.4939,1990.6929
45.5159,1940.0581
45.5379,1964.4652
45.5599,1970.5352
45.5819,1966.4183
45.6039,1990.4342
45.6259,1914.8879
45.6479,1925.4076
45.6699,1949.4672
45.6919,1964.6843
45.7139,1960
45.7359,1992.0499
45.7579,2033.4513
45.7799,2045.5905
45.8019,2033.7766
45.8239,2025.04
45.8459,2023.9792
45.8679,1970.6945
45.8899,1966.2539
45.9119,1986.7758
45.9339,1970.2585
45.9559,2002.8321
45.9779,1991.0607
45.9999,2005.6822
46.0219,2064.5518
46.0439,2176.3339
46.0659,2415.9174
46.0879,2697.5452
46.1099,3178.6648
46.1319,3694.3502
46.1539,3793.1413
46.1759,3422.9393
46.1979,2969.0133
46.2199,2742.0969
46.2419,2769.843
46.2639,2696.9066
46.2859,2384.863
46.3079,2010.3153
46.3299,1802.2817
46.3519,1734.8892
46.3739,1658.3842
46.3959,1640.1922
46.4179,1598.1768
46.4399,1583.1735
46.4619,1603.9608
46.4839,1646.5621
46.5059,1567.8158
46.5279,1568.2228
46.5499,1626.31
46.5719,1582.2584
46.5939,1576.0816
46.6159,1609.5046
46.6379,1560.1365
46.6599,1573.2395
46.6819,1608.832
46.7039,1568.8465
46.7259,1541.2123
46.7479,1559.031
46.7699,1567.4044
46.7919,1650
46.8139,1648.224
46.8359,1601.6943
46.8579,1512.546
46.8799,1584.1139
46.9019,1663.2958
46.9239,1619.4937
46.9459,1650
46.9679,1649.1086
46.9899,1645.2341
47.0119,1676.0151
47.0339,1792.5118
47.0559,1912.2372
47.0779,2011.5408
47.0999,2281.0594
47.1219,2531.7453
47.1439,2714.0879
47.1659,2491.6722
47.1879,2159.7138
47.2099,2058.6137
47.2319,2087.1456
47.2539,2049.4369
47.2759,1875.4657
47.2979,1747.1273
47.3199,1610.4324
47.3419,1562.3983
47.3639,1556.4339
47.3859,1523.7739
47.4079,1520.9394
47.4299,1509.7926
47.4519,1509.8971
47.4739,1479.0796
47.4959,1532.8147
47.5179,1566.8885
47.5399,1469.9289
47.5619,1469.8686
47.5839,1512.8136
47.6059,1525.8674
47.6279,1573.2839
47.6499,1567.9565
47.6719,1545.8924
47.6939,1556.0659
47.7159,1537.9168
47.7379,1513.0796
47.7599,1504.2905
47.7819,1560.6287
47.8039,1530.6721
47.8259,1525.6817
47.8479,1531.7167
47.8699,1539.4633
47.8919,1528.1882
47.9139,1517.6234
47.9359,1565.102
47.9579,1600.9283
47.9799,1569.5927
48.0019,1571.3305
48.0239,1545.2865
48.0459,1550.9696
48.0679,1546.8716
48.0899,1475.1236
48.1119,1436.1376
48.1339,1508.8765
48.1559,1502.522
48.1779,1562.4811
48.1999,1551.2683
48.2219,1544.1721
48.2439,1612.898
48.2659,1604.6872
48.2879,1564.6783
48.3099,1533.5643
48.3319,1522.8849
48.3539,1512.0816
48.3759,1524.7095
48.3979,1462.0882
48.4199,1548.0392
48.4419,1470.3261
48.4639,1443.848
48.4859,1485.9185
48.5079,1457.3686
48.5299,1488
48.5519,1482.7131
48.5739,1538.8445
48.5959,1491.2668
48.6179,1446.4425
48.6399,1458.4417
48.6619,1508.64
48.6839,1478.8279
48.7059,1484.6699
48.7279,1545.8183
48.7499,1476.7937
48.7719,1518.5715
48.7939,1557.4127
48.8159,1512.7058
48.8379,1573.1299
48.8599,1611.0682
48.8819,1687.2634
48.9039,1667.612
48.9259,1678.2128
48.9479,1740.3711
48.9699,1623.8544
48.9919,1627.198
49.0139,1683.4286
49.0359,1642.0804
49.0579,1583.6902
49.0799,1562.7034
49.1019,1524.1866
49.1239,1476.6902
49.1459,1490.779
49.1679,1545.1289
49.1899,1500.846
49.2119,1433.8631
49.2339,1495.4062
49.2559,1461.0821
49.2779,1384.5821
49.2999,1438.204
49.3219,1486.5485
49.3439,1432.4423
49.3659,1425.8861
49.3879,1473.0916
49.4099,1444.3772
49.4319,1459.0315
49.4539,1515.6754
49.4759,1536.6541
49.4979,1532.633
49.5199,1502.6814
49.5419,1569.5432
49.5639,1690.0113
49.5859,1826.9062
49.6079,2012.0667
49.6299,2239.0353
49.6519,2551.2771
49.6739,2840.2281
49.6959,3207.8118
49.7179,3289.3005
49.7399,2990.0034
49.7619,2742.547
49.7839,2605.3299
49.8059,2550.7521
49.8279,2344.3018
49.8499,2125.194
49.8719,1918.0503
49.8939,1784.4608
49.9159,1653.6897
49.9379,1594.6813
49.9599,1552.6463
49.9819,1505.873
50.0039,1464.8833
50.0259,1422.8966
50.0479,1432.1136
50.0699,1521.8981
50.0919,1508.9473
50.1139,1522.6992
50.1359,1463.987
50.1579,1359.679
50.1799,1457.8544
50.2019,1383.863
50.2239,1405.446
50.2459,1384.9498
50.2679,1303.4073
50.2899,1363.9304
50.3119,1358.0309
50.3339,1383.5278
50.3559,1322.2661
50.3779,1240.0769
50.3999,1305.4005
50.4219,1374.3498
50.4439,1312.1282
50.4659,1292.4683
50.4879,1351.3706
50.5099,1323.345
50.5319,1308.8203
50.5539,1357.7146
50.5759,1305.2997
50.5979,1351.5229
50.6199,1312.2387
50.6419,1373.8997
50.6639,1367.8115
50.6859,1330.7268
50.7079,1347.1459
50.7299,1331.2695
50.7519,1336.93
50.7739,1312.953
50.7959,1350.2762
50.8179,1317.7381
50.8399,1282.664
50.8619,1338.9086
50.8839,1341
50.9059,1320.3714
50.9279,1298.3837
50.9499,1360.5293
50.9719,1377.2269
50.9939,1343.7916
51.0159,1358.4444
51.0379,1345.9704
51.0599,1310.7397
51.0819,1302.4368
51.1039,1330.4381
51.1259,1332.8014
51.1479,1352.5803
51.1699,1362.0766
51.1919,1336.845
51.2139,1328.4946
51.2359,1343.7243
51.2579,1330.4639
51.2799,1252.0704
51.3019,1253.5756
51.3239,1319.5606
51.3459,1337.4267
51.3679,1313.578
51.3899,1340.6424
51.4119,1316.9185
51.4339,1281.1327
51.4559,1267.9404
51.4779,1318.5834
51.4999,1323.6282
51.5219,1274.4059
51.5439,1325.3878
51.5659,1344.469
51.5879,1332.6239
51.6099,1269.4569
51.6319,1278.2539
51.6539,1285.528
51.6759,1284
51.6979,1277.0708
51.7199,1319.5858
51.7419,1299.4256
51.7639,1311.1697
51.7859,1285.6941
51.8079,1334.7018
51.8299,1330.8141
51.8519,1338.2714
51.8739,1276.6182
51.8959,1252.9114
51.9179,1359.9248
51.9399,1296.9702
51.9619,1259.6429
51.9839,1256.0703
52.0059,1341.7211
52.0279,1263.0232
52.0499,1307.3286
52.0719,1286.4861
52.0939,1200.7607
52.1159,1281.9345
52.1379,1263.834
52.1599,1316.3363
52.1819,1323.9681
52.2039,1230.6831
52.2259,1283.9974
52.2479,1353.7614
52.2699,1323.0628
52.2919,1293.788
52.3139,1386.1484
52.3359,1354.3969
52.3579,1286.3362
52.3799,1280.6791
52.4019,1304.3883
52.4239,1298.0208
52.4459,1321.7972
52.4679,1299.8091
52.4899,1369.3009
52.5119,1349.2942
52.5339,1298.9193
52.5559,1292.9883
52.5779,1301.5998
52.5999,1290.0831
52.6219,1299.8793
52.6439,1340.5812
52.6659,1336.2604
52.6879,1331.5799
52.7099,1382.3412
52.7319,1366.5775
52.7539,1330.5605
52.7759,1318.6956
52.7979,1334.5264
52.8199,1419.1213
52.8419,1437.0488
52.8639,1389.264
52.8859,1399.239
52.9079,1391.7171
52.9299,1415.2797
52.9519,1467.177
52.9739,1438.4118
52.9959,1432.7839
53.0179,1452.4631
53.0399,1470.2671
53.0619,1515.0661
53.0839,1523.3052
53.1059,1528.8094
53.1279,1533.3298
53.1499,1564.9354
53.1719,1573.4173
53.1939,1649.6447
53.2159,1703.056
53.2379,1756.726
53.2599,1784.8594
53.2819,1825.8764
53.3039,1790.2897
53.3259,1736.5397
53.3479,1774.1139
53.3699,1772.0628
53.3919,1757.702
53.4139,1734.8701
53.4359,1691.4364
53.4579,1650.3784
53.4799,1641
53.5019,1627.7777
53.5239,1627.9504
53.5459,1695.5962
53.5679,1747.0302
53.5899,1713.6527
53.6119,1773.8174
53.6339,1949.6419
53.6559,2155.0829
53.6779,2337.1954
53.6999,2442.5097
53.7219,2295.3788
53.7439,2096.3163
53.7659,1831.0264
53.7879,1936.6338
53.8099,1965.8968
53.8319,1873.6717
53.8539,1741.3741
53.8759,1726.1592
53.8979,1557.1655
53.9199,1472.2647
53.9419,1408.8497
53.9639,1441.9899
53.9859,1386.7954
54.0079,1362.9395
54.0299,1363.7464
54.0519,1382.0873
54.0739,1342.239
54.0959,1359.3819
54.1179,1335.8527
54.1399,1380.416
54.1619,1389.2604
54.1839,1353.4937
54.2059,1363.4452
54.2279,1323.4671
54.2499,1328.4346
54.2719,1336.3498
54.2939,1383.0706
54.3159,1351.0466
54.3379,1327.7166
54.3599,1293.6858
54.3819,1294.2744
54.4039,1320.7612
54.4259,1312.4215
54.4479,1273.666
54.4699,1332.0089
54.4919,1341.3751
54.5139,1323.1366
54.5359,1327.4176
54.5579,1362.6775
54.5799,1342.0169
54.6019,1269.7519
54.6239,1264.4394
54.6459,1309.7432
54.6679,1299.1505
54.6899,1300.702
54.7119,1332.1183
54.7339,1343.9761
54.7559,1310.7405
54.7779,1281.6723
54.7999,1271.1536
54.8219,1287.2103
54.8439,1268.5043
54.8659,1262.6991
54.8879,1288.7411
54.9099,1327.7543
54.9319,1323.9689
54.9539,1275.2495
54.9759,1307.5206
54.9979,1340.0914
55.0199,1308.2102
55.0419,1311.421
55.0639,1306.0884
55.0859,1338.0897
55.1079,1304.3227
55.1299,1265.6282
55.1519,1257.9012
55.1739,1309.6807
55.1959,1325.9306
55.2179,1292.3312
55.2399,1316.9412
55.2619,1401.3013
55.2839,1340.4774
55.3059,1335.6412
55.3279,1314.668
55.3499,1348.5115
55.3719,1312.7613
55.3939,1269.6075
55.4159,1303.661
55.4379,1293.8121
55.4599,1314.5355
55.4819,1281.757
55.5039,1220.5351
55.5259,1246.7081
55.5479,1284.0714
55.5699,1209.5493
55.5919,1305.1612
55.6139,1314.8309
55.6359,1299.4798
55.6579,1292.1239
55.6799,1306.9189
55.7019,1284.6832
55.7239,1240.4576
55.7459,1314.4021
55.7679,1291.7552
55.7899,1202.307
55.8119,1262.8523
55.8339,1321.9849
55.8559,1251.3854
55.8779,1338.0549
55.8999,1295.765
55.9219,1288.2889
55.9439,1251.4209
55.9659,1261.6982
55.9879,1258.833
56.0099,1196.3893
56.0319,1198.3714
56.0539,1247.5666
56.0759,1288.0217
56.0979,1294.8937
56.1199,1285.3275
56.1419,1306.0758
56.1639,1318.255
56.1859,1306.2008
56.2079,1342.3437
56.2299,1341.5288
56.2519,1311.8584
56.2739,1292.5947
56.2959,1307.9882
56.3179,1368.693
56.3399,1336.6333
56.3619,1341.8731
56.3839,1348.1461
56.4059,1369.8044
56.4279,1359.9004
56.4499,1316.3804
56.4719,1323.8537
56.4939,1348.8544
56.5159,1349.6166
56.5379,1337.4639
56.5599,1278.6147
56.5819,1272.8941
56.6039,1293.6754
56.6259,1277.9538
56.6479,1264.1503
56.6699,1251.3569
56.6919,1248.88
56.7139,1272.0356
56.7359,1243.8192
56.7579,1199.0628
56.7799,1200.1372
56.8019,1193.5712
56.8239,1213.8842
56.8459,1202.8671
56.8679,1205.1161
56.8899,1222.7179
56.9119,1190.8066
56.9339,1187.2085
56.9559,1197.9523
56.9779,1182.0058
56.9999,1170.6076
57.0219,1208.4506
57.0439,1140.2827
57.0659,1230.1088
57.0879,1186.8776
57.1099,1168.9676
57.1319,1153.8839
57.1539,1149.1819
57.1759,1186.3675
57.1979,1195.6854
57.2199,1233.6187
57.2419,1168.8846
57.2639,1144.8067
57.2859,1155.4858
57.3079,1193.1654
57.3299,1173.1729
57.3519,1197.0041
57.3739,1183.0029
57.3959,1232.5248
57.4179,1203.1355
57.4399,1225.4691
57.4619,1220.059
57.4839,1194.1379
57.5059,1250.2361
57.5279,1267.0818
57.5499,1304.7413
57.5719,1270.7475
57.5939,1212.2144
57.6159,1232.4387
57.6379,1254.92
57.6599,1191.0712
57.6819,1260.5787
57.7039,1182.6597
57.7259,1263.3117
57.7479,1260.9494
57.7699,1284.3307
57.7919,1343.462
57.8139,1321.0659
57.8359,1299.0792
57.8579,1242.6444
57.8799,1274.6032
57.9019,1199.5195
57.9239,1247.0412
57.9459,1241.5076
57.9679,1272.907
57.9899,1251.164
58.0119,1202.2863
58.0339,1175.7791
58.0559,1231
58.0779,1223.3106
58.0999,1192.0558
58.1219,1177.0739
58.1439,1186.5539
58.1659,1164.2862
58.1879,1187.4775
58.2099,1165.4175
58.2319,1158.8634
58.2539,1236.355
58.2759,1217.9687
58.2979,1172.0264
58.3199,1183.8847
58.3419,1224.5272
58.3639,1230.5884
58.3859,1238.6983
58.4079,1232.7338
58.4299,1229.9913
58.4519,1240.6538
58.4739,1211.9998
58.4959,1209.6034
58.5179,1192.8326
58.5399,1249.2012
58.5619,1292.7197
58.5839,1354.4887
58.6059,1402.0345
58.6279,1381.2609
58.6499,1379.1161
58.6719,1389.6633
58.6939,1354.0056
58.7159,1411.293
58.7379,1441.4847
58.7599,1519.4032
58.7819,1591.7475
58.8039,1790.5016
58.8259,2043.0542
58.8479,2496.4281
58.8699,3139.7857
58.8919,4210.079
58.9139,5603.5778
58.9359,6435.6014
58.9579,5500.4632
58.9799,4029.6776
59.0019,3151.091
59.0239,3027.7831
59.0459,3277.1616
59.0679,3695.4774
59.0899,3561.359
59.1119,2670.9514
59.1339,1937.223
59.1559,1483.1426
59.1779,1373.448
59.1999,1368.0388
59.2219,1229.7693
59.2439,1233.886
59.2659,1234.998
59.2879,1238.1052
59.3099,1343.6833
59.3319,1330.6982
59.3539,1349.2448
59.3759,1333.4051
59.3979,1326.2971
59.4199,1357.7656
59.4419,1377.7709
59.4639,1379.5671
59.4859,1345.1597
59.5079,1416.4684
59.5299,1394.3243
59.5519,1351.6885
59.5739,1306.2528
59.5959,1336.6674
59.6179,1359.3623
59.6399,1272.1371
59.6619,1265.2193
59.6839,1257.6636
59.7059,1222.1965
59.7279,1220.7974
59.7499,1258.5452
59.7719,1174.2624
59.7939,1164.6186
59.8159,1185.4425
59.8379,1207.1979
59.8599,1239.3608
59.8819,1234.6844
59.9039,1234.2276
59.9259,1229.8997
59.9479,1243.5415
59.9699,1260.3903
59.9919,1251.4401
60.0139,1230.5484
60.0359,1236.1072
60.0579,1287.5112
60.0799,1260.7933
60.1019,1247.9067
60.1239,1296.1459
60.1459,1292.4804
60.1679,1268.0946
60.1899,1252.4018
60.2119,1201.8362
60.2339,1199.1604
60.2559,1230.6988
60.2779,1222.9555
60.2999,1184.7285
60.3219,1171.412
60.3439,1160.7949
60.3659,1161.9637
60.3879,1160.7512
60.4099,1155.0885
60.4319,1103.9913
60.4539,1083.6175
60.4759,1068.8008
60.4979,1049.0186
60.5199,1026.5343
60.5419,1028.9529
60.5639,1038.7857
60.5859,1082.1881
60.6079,1060.3582
60.6299,1068.5223
60.6519,1049.5116
60.6739,1075.7406
60.6959,1073.8426
60.7179,1054.815
60.7399,1083.04
60.7619,1111.6796
60.7839,1048.3103
60.8059,1068.6196
60.8279,1083.5777
60.8499,971.9768
60.8719,1041.1568
60.8939,1033.7561
60.9159,1049.4775
60.9379,1049.1357
60.9599,1048.0556
60.9819,1042.2596
61.0039,1033.2787
61.0259,1059.4957
61.0479,1087.8212
61.0699,1015.6871
61.0919,964.2009
61.1139,1029.9146
61.1359,1058.0161
61.1579,1036.9912
61.1799,1051.9792
61.2019,1026.7081
61.2239,1056.8048
61.2459,1045.9381
61.2679,1055.1652
61.2899,1064.7729
61.3119,1069.8589
61.3339,1070.6874
61.3559,1077.349
61.3779,1074.1448
61.3999,1116.053
61.4219,1094.1898
61.4439,1076.1752
61.4659,1050.1658
61.4879,1136.1832
61.5099,1098.9586
61.5319,1072.2875
61.5539,1033.0794
61.5759,1018.8195
61.5979,1081.2036
61.6199,1080.8682
61.6419,1068.1415
61.6639,1048.2315
61.6859,1048.4024
61.7079,1068.3037
61.7299,1030.8965
61.7519,1013.7333
61.7739,1068.5539
61.7959,1097.4159
61.8179,1116.3946
61.8399,1149.7669
61.8619,1125.9615
61.8839,1081.9663
61.9059,1093.3101
61.9279,1096.209
61.9499,1080.8675
61.9719,1073.331
61.9939,1068.1949
62.0159,1094.5344
62.0379,1113.0415
62.0599,1114.584
62.0819,1121.1388
62.1039,1060.4684
62.1259,1042.5608
62.1479,1059.9183
62.1699,1083.9206
62.1919,1107.3275
62.2139,1111.645
62.2359,1128.4333
62.2579,1124.9468
62.2799,1147.6403
62.3019,1090.1912
62.3239,1116.9325
62.3459,1078.4657
62.3679,1095.6714
62.3899,1088.699
62.4119,1076.466
62.4339,1076.5359
62.4559,1127.7157
62.4779,1095.2406
62.4999,1079.7807
62.5219,1138.6493
62.5439,1136.2413
62.5659,1123.7413
62.5879,1156.1595
62.6099,1126.4826
62.6319,1121
62.6539,1158.4161
62.6759,1163
62.6979,1162.0846
62.7199,1135.0957
62.7419,1163.0808
62.7639,1178.3324
62.7859,1150.0618
62.8079,1167.5611
62.8299,1142.2811
62.8519,1130
62.8739,1129.6833
62.8959,1105.4623
62.9179,1049.5725
62.9399,1089
62.9619,1092.0209
62.9839,1134.8937
63.0059,1107.1621
63.0279,1092.3916
63.0499,1136.484
63.0719,1165.9049
63.0939,1119.993
63.1159,1111.4281
63.1379,1174.3865
63.1599,1191.4793
63.1819,1179.336
63.2039,1137.7925
63.2259,1142.473
63.2479,1163.813
63.2699,1197.8491
63.2919,1135.9244
63.3139,1173.3543
63.3359,1237.4005
63.3579,1269.5071
63.3799,1208.0969
63.4019,1178.3318
63.4239,1238.5422
63.4459,1232.3334
63.4679,1243.3456
63.4899,1246.1475
63.5119,1240.3745
63.5339,1248.8627
63.5559,1277.551
63.5779,1249.8229
63.5999,1258.9044
63.6219,1266.1
63.6439,1280.8353
63.6659,1344.7375
63.6879,1325.9786
63.7099,1310.6166
63.7319,1310.6444
63.7539,1274.7294
63.7759,1301.7704
63.7979,1328.8002
63.8199,1336.0297
63.8419,1336.9261
63.8639,1327.9362
63.8859,1353.6914
63.9079,1344.342
63.9299,1381.1292
63.9519,1392.5908
63.9739,1337.7873
63.9959,1360.1243
64.0179,1424.5214
64.0399,1472.9383
64.0619,1438.2209
64.0839,1436.3831
64.1059,1428.4483
64.1279,1456.0037
64.1499,1493.2529
64.1719,1475.3981
64.1939,1450.9753
64.2159,1368.1204
64.2379,1396.7555
64.2599,1413.5762
64.2819,1378.7825
64.3039,1385.4411
64.3259,1431.074
64.3479,1478.5145
64.3699,1477.5044
64.3919,1455.3155
64.4139,1400.4255
64.4359,1438.2082
64.4579,1451.1898
64.4799,1471.1314
64.5019,1464.6902
64.5239,1588.4348
64.5459,1586.5732
64.5679,1657.0535
64.5899,1763.0821
64.6119,1890.0803
64.6339,1985.7232
64.6559,2153.8786
64.6779,2348.3913
64.6999,2132.9429
64.7219,1927.7016
64.7439,1842.9787
64.7659,1901.8315
64.7879,1843.5556
64.8099,1943.7539
64.8319,1885.8167
64.8539,1809.9623
64.8759,1751.6613
64.8979,1740.6779
64.9199,1650
64.9419,1636.8079
64.9639,1574.5399
64.9859,1590.2617
65.0079,1624.0682
65.0299,1663.2974
65.0519,1587.3035
65.0739,1623.2157
65.0959,1672.0898
65.1179,1677.0831
65.1399,1749.8038
65.1619,1752.4339
65.1839,1793.8256
65.2059,1839.0132
65.2279,1921.6155
65.2499,1961.9162
65.2719,1846.7565
65.2939,1693.7816
65.3159,1661.8276
65.3379,1628.9518
65.3599,1650.1197
65.3819,1664.1365
65.4039,1619.0838
65.4259,1590.4721
65.4479,1563.4022
65.4699,1487.9043
65.4919,1443.9011
65.5139,1425.2261
65.5359,1402.9763
65.5579,1368.4157
65.5799,1378.5342
65.6019,1403.235
65.6239,1392.2979
65.6459,1393.8742
65.6679,1410.92
65.6899,1416.6519
65.7119,1408.4075
65.7339,1346.5089
65.7559,1314.3673
65.7779,1339.2666
65.7999,1345.5152
65.8219,1341.3392
65.8439,1314.0775
65.8659,1309.2243
65.8879,1311.6047
65.9099,1306.7404
65.9319,1329.5557
65.9539,1349.2833
65.9759,1335.8234
65.9979,1304.9497
66.0199,1337.1124
66.0419,1293.3585
66.0639,1361.5772
66.0859,1232.6628
66.1079,1242.1306
66.1299,1352.7745
66.1519,1292.7119
66.1739,1264.2811
66.1959,1298.5282
66.2179,1296.0619
66.2399,1270.8538
66.2619,1355.9395
66.2839,1337.4335
66.3059,1291.2348
66.3279,1289.8869
66.3499,1284.2655
66.3719,1280.1278
66.3939,1269.2163
66.4159,1344.4399
66.4379,1363.7638
66.4599,1315.3976
66.4819,1280.2034
66.5039,1256.3405
66.5259,1307.9447
66.5479,1275.4516
66.5699,1320.1453
66.5919,1272.9989
66.6139,1253.413
66.6359,1267.5142
66.6579,1337.1343
66.6799,1262.2994
66.7019,1259.3717
66.7239,1277.047
66.7459,1313.1323
66.7679,1239.0785
66.7899,1230.0947
66.8119,1254.9021
66.8339,1205.5072
66.8559,1306.2547
66.8779,1253.5401
66.8999,1285.3199
66.9219,1286.3299
66.9439,1314.4595
66.9659,1210.9025
66.9879,1210.4197
67.0099,1263.6551
67.0319,1265.4151
67.0539,1223.9814
67.0759,1225.4364
67.0979,1207.6156
67.1199,1211.6141
67.1419,1183.5218
67.1639,1176.0737
67.1859,1204.7048
67.2079,1163.5116
67.2299,1163.4486
67.2519,1167.9914
67.2739,1141.3923
67.2959,1167.8991
67.3179,1190.0962
67.3399,1162.2609
67.3619,1146.9154
67.3839,1145.5334
67.4059,1160.1889
67.4279,1169.7679
67.4499,1130.3595
67.4719,1108.4086
67.4939,1184.3871
67.5159,1211.1414
67.5379,1195.1416
67.5599,1202.2129
67.5819,1180.5937
67.6039,1183.7214
67.6259,1145.5267
67.6479,1124.7237
67.6699,1195.3221
67.6919,1220.3559
67.7139,1171.3428
67.7359,1147.8893
67.7579,1188.3159
67.7799,1144.89
67.8019,1132.9027
67.8239,1135
67.8459,1154.7887
67.8679,1170.4499
67.8899,1106.0772
67.9119,1165.558
67.9339,1154.9379
67.9559,1114.1738
67.9779,1095.0206
67.9999,1083.3465
68.0219,1115.8153
68.0439,1115.4892
68.0659,1089.3951
68.0879,1090.707
68.1099,1127.6226
68.1319,1102.4114
68.1539,1108.709
68.1759,1131.446
68.1979,1211.0565
68.2199,1113.9945
68.2419,1102.8465
68.2639,1092.0533
68.2859,1133.2242
68.3079,1137.9571
68.3299,1120.602
68.3519,1154.8772
68.3739,1092.8172
68.3959,1110.7153
68.4179,1101.5557
68.4399,1115.4594
68.4619,1078.0918
68.4839,1131.2643
68.5059,1103.1986
68.5279,1106.0754
68.5499,1124.1018
68.5719,1063.4634
68.5939,1104.9322
68.6159,1113.7826
68.6379,1116.2972
68.6599,1150.739
68.6819,1130.7596
68.7039,1083.7958
68.7259,1113.1413
68.7479,1067.3858
68.7699,1068.7731
68.7919,1103.2803
68.8139,1105.0029
68.8359,1107.1358
68.8579,1095.3684
68.8799,1073.6615
68.9019,1094.3294
68.9239,1093.5443
68.9459,1090.4719
68.9679,1067.5402
68.9899,1088.3161
69.0119,1141.2016
69.0339,1152.6421
69.0559,1124.7386
69.0779,1052.4912
69.0999,1056.324
69.1219,1103.531
69.1439,1130.2525
69.1659,1105.9759
69.1879,1073.6609
69.2099,1083.2144
69.2319,1101.4107
69.2539,1111.6873
69.2759,1120.6284
69.2979,1128.6028
69.3199,1090.2519
69.3419,1093.603
69.3639,1117.0359
69.3859,1145.7731
69.4079,1132.4314
69.4299,1121.0295
69.4519,1101.3361
69.4739,1113.0326
69.4959,1088.4712
69.5179,1069.9203
69.5399,1017.8187
69.5619,1027.7593
69.5839,1058.3512
69.6059,1070.4238
69.6279,1020.8369
69.6499,1050.9678
69.6719,1033.5903
69.6939,1045.1279
69.7159,1057.3629
69.7379,1099.7318
69.7599,1057.0695
69.7819,1079.5607
69.8039,1045.0401
69.8259,1086.6827
69.8479,1056.5086
69.8699,1045.6214
69.8919,1074.9077
69.9139,1033.4422
69.9359,1099.1031
69.9579,1090.3421
69.9799,1062.4541
70.0019,1042.0786
70.0239,1084.0335
70.0459,1086.5129
70.0679,1019.3275
70.0899,1115.7786
70.1119,1087.1236
70.1339,1043.4211
70.1559,1083.745
70.1779,1028.4928
70.1999,1069.1484
70.2219,1120.7902
70.2439,1064.5946
70.2659,1100.4555
70.2879,1126.1423
70.3099,1088.8319
70.3319,1084.2108
70.3539,1073.3601
70.3759,1091.3892
70.3979,1070.6041
70.4199,1108.4231
70.4419,1082.5162
70.4639,1105.6559
70.4859,1167.341
70.5079,1123.2254
70.5299,1096.3512
70.5519,1140.0775
70.5739,1143.2266
70.5959,1082.7893
70.6179,1113.0827
70.6399,1144.6184
70.6619,1162.4637
70.6839,1177.581
70.7059,1268.9911
70.7279,1280.8956
70.7499,1357.2248
70.7719,1432.7716
70.7939,1532.939
70.8159,1711.9955
70.8379,1951.9604
70.8599,2291.6279
70.8819,2765.3375
70.9039,3245.502
70.9259,3447.4919
70.9479,3105.5591
70.9699,2476.2742
70.9919,2036.9707
71.0139,1915.8272
71.0359,1984.1952
71.0579,2068.0555
71.0799,2157.0467
71.1019,2257.505
71.1239,2098.0439
71.1459,1724.8228
71.1679,1442.0829
71.1899,1322.1343
71.2119,1276.1493
71.2339,1217.7784
71.2559,1167.4368
71.2779,1132.3135
71.2999,1136.7036
71.3219,1199.2158
71.3439,1174.5046
71.3659,1180.2273
71.3879,1145.3979
71.4099,1150.2194
71.4319,1110.4805
71.4539,1093.349
71.4759,1083.8043
71.4979,1123.5932
71.5199,1058.5585
71.5419,1066.4112
71.5639,1105.6182
71.5859,1086.3312
71.6079,1071.3868
71.6299,1104.4132
71.6519,1052.9259
71.6739,1096.37
71.6959,1069.8405
71.7179,1092.8241
71.7399,1066.9222
71.7619,1089.5046
71.7839,1077.1086
71.8059,1103.0276
71.8279,1109.8702
71.8499,1103.5972
71.8719,1157.5919
71.8939,1145.3449
71.9159,1102.0544
71.9379,1157.281
71.9599,1123.0205
71.9819,1090.1143
72.0039,990.747
72.0259,1092.814
72.0479,1073.6007
72.0699,1133.1514
72.0919,1136.4558
72.1139,1148.824
72.1359,1140.2795
72.1579,1098.3744
72.1799,1080.3923
72.2019,1137.8475
72.2239,1129.1372
72.2459,1133.7522
72.2679,1139.8405
72.2899,1157.8934
72.3119,1103.6941
72.3339,1129.5504
72.3559,1197.4346
72.3779,1122.2948
72.3999,1126.1774
72.4219,1203.2394
72.4439,1238.1791
72.4659,1181.7578
72.4879,1158.7037
72.5099,1194.8901
72.5319,1207.5328
72.5539,1174.1266
72.5759,1153.6048
72.5979,1188.2492
72.6199,1210.4865
72.6419,1213.6079
72.6639,1256.8817
72.6859,1260.1414
72.7079,1258.7283
72.7299,1235.0281
72.7519,1229.285
72.7739,1252.821
72.7959,1242.0874
72.8179,1256.6344
72.8399,1270.6735
72.8619,1274.9391
72.8839,1293.5488
72.9059,1310.4219
72.9279,1285.3532
72.9499,1331.0212
72.9719,1346.9944
72.9939,1320.9763
73.0159,1288.5219
73.0379,1293.6137
73.0599,1313.6815
73.0819,1354.1242
73.1039,1378.9367
73.1259,1379.293
73.1479,1347.0986
73.1699,1376.0652
73.1919,1393.4479
73.2139,1390.2566
73.2359,1370.5343
73.2579,1352.9576
73.2799,1378.9604
73.3019,1393.3973
73.3239,1470.8299
73.3459,1473.6282
73.3679,1440.4423
73.3899,1474.2225
73.4119,1457.3715
73.4339,1489.7121
73.4559,1513.3669
73.4779,1571.2835
73.4999,1496.121
73.5219,1532.4309
73.5439,1561.2981
73.5659,1641.9651
73.5879,1642.0005
73.6099,1648.3542
73.6319,1678.6747
73.6539,1708.256
73.6759,1769.0709
73.6979,1791.7681
73.7199,1812.6996
73.7419,1732.5722
73.7639,1738.1756
73.7859,1833.2115
73.8079,1838.4703
73.8299,1793.8756
73.8519,1724.3794
73.8739,1780.0091
73.8959,1805.8467
73.9179,1737.2896
73.9399,1672.3923
73.9619,1668.7884
73.9839,1644.1434
74.0059,1621.64
74.0279,1572.8424
74.0499,1484.4712
74.0719,1485.2164
74.0939,1420.5337
74.1159,1399.589
74.1379,1402.8407
74.1599,1390.0887
74.1819,1337.1
74.2039,1338.0537
74.2259,1392.5416
74.2479,1369.2635
74.2699,1350.1148
74.2919,1299.3945
74.3139,1296.3839
74.3359,1300.0938
74.3579,1239.1327
74.3799,1254.7736
74.4019,1260.103
74.4239,1234.0669
74.4459,1226.7748
74.4679,1204.283
74.4899,1194.0414
74.5119,1207.2203
74.5339,1190.2387
74.5559,1213.3063
74.5779,1219.5011
74.5999,1215.4663
74.6219,1208.3351
74.6439,1200.4318
74.6659,1185.9378
74.6879,1223.5816
74.7099,1233.4511
74.7319,1174.6559
74.7539,1143.1415
74.7759,1178.4674
74.7979,1176.3833
74.8199,1170.1269
74.8419,1176.9007
74.8639,1174.0132
74.8859,1145.1866
74.9079,1143.1068
74.9299,1174.4722
74.9519,1176.3844
74.9739,1221.9787
74.9959,1136.16
75.0179,1153.7122
75.0399,1132.5711
75.0619,1163.6817
75.0839,1161.9763
75.1059,1143.8957
75.1279,1192.5933
75.1499,1187.0451
75.1719,1159.3504
75.1939,1139.8583
75.2159,1122.5461
75.2379,1146.7976
75.2599,1175.1418
75.2819,1187.4052
75.3039,1194.7075
75.3259,1210.5281
75.3479,1131.3933
75.3699,1237.4697
75.3919,1180.2472
75.4139,1080.436
75.4359,1151.7443
75.4579,1146.0799
75.4799,1190.9435
75.5019,1187.8661
75.5239,1159.3245
75.5459,1167.4841
75.5679,1205.7146
75.5899,1164.894
75.6119,1194.5212
75.6339,1195.0058
75.6559,1175.4513
75.6779,1173.5194
75.6999,1216.0495
75.7219,1261.0413
75.7439,1244.9618
75.7659,1206.2205
75.7879,1232.5707
75.8099,1226.0591
75.8319,1264.2817
75.8539,1325.4866
75.8759,1300.4997
75.8979,1287.1449
75.9199,1380.262
75.9419,1469.6939
75.9639,1475.811
75.9859,1582.9619
76.0079,1584.0108
76.0299,1494.8028
76.0519,1375.4282
76.0739,1248.6871
76.0959,1247.4423
76.1179,1275.3273
76.1399,1251.0923
76.1619,1264.317
76.1839,1300.6504
76.2059,1286.522
76.2279,1250.1757
76.2499,1173.9197
76.2719,1126.9844
76.2939,1113.5248
76.3159,1091.9528
76.3379,1081.3539
76.3599,1078.4819
76.3819,1033.6779
76.4039,993.8545
76.4259,1019.3277
76.4479,1012.3139
76.4699,999.2675
76.4919,1042.4257
76.5139,1050.5102
76.5359,1017.7254
76.5579,1030.0346
76.5799,1022.196
76.6019,982.6143
76.6239,980.1309
76.6459,945.3536
76.6679,993.1033
76.6899,992.3607
76.7119,967.3583
76.7339,998.3425
76.7559,1014.6166
76.7779,989.4216
76.7999,1001.0562
76.8219,1009.2252
76.8439,973.982
76.8659,996.7426
76.8879,1024.9225
76.9099,1040.9765
76.9319,1036.9257
76.9539,1029.8397
76.9759,1084.3249
76.9979,1018.6298
77.0199,1018.3353
77.0419,1005.9911
77.0639,1005.9415
77.0859,1002.1848
77.1079,1027.1182
77.1299,988.865
77.1519,984.0373
77.1739,1009.0828
77.1959,1035.9022
77.2179,966.6247
77.2399,1022.4865
77.2619,986.6254
77.2839,1000.2544
77.3059,1033.6136
77.3279,1042.6909
77.3499,1058.8859
77.3719,1051.953
77.3939,1077.6432
77.4159,1097.2434
77.4379,1102.8937
77.4599,1092.6274
77.4819,1093.6487
77.5039,1059.562
77.5259,1058.407
77.5479,1047.1786
77.5699,1063.9323
77.5919,1079.1081
77.6139,1097.1314
77.6359,1145.1985
77.6579,1092.7683
77.6799,1122.861
77.7019,1056.1647
77.7239,1005.5842
77.7459,1029.6108
77.7679,1044.6252
77.7899,1037.8016
77.8119,1069.7037
77.8339,1068.7873
77.8559,1016.4972
77.8779,986.7552
77.8999,991.5486
77.9219,1009.0426
77.9439,1017.6423
77.9659,1001.6904
77.9879,1001.2683
78.0099,982.6499
78.0319,986.27
78.0539,993
78.0759,1046.7302
78.0979,1034.6217
78.1199,981.3777
78.1419,1009.2943
78.1639,1081.9372
78.1859,1060.2087
78.2079,1015.0644
78.2299,995.4688
78.2519,1009.0504
78.2739,1016.8848
78.2959,1001.1828
78.3179,982.5161
78.3399,993.3227
78.3619,986.3332
78.3839,999.7268
78.4059,1032.1202
78.4279,1027.2255
78.4499,1006.6833
78.4719,972.603
78.4939,1001.2422
78.5159,996.935
78.5379,981.055
78.5599,946.131
78.5819,966.2146
78.6039,991.6412
78.6259,1019.6108
78.6479,1028.3058
78.6699,1022.29
78.6919,998.022
78.7139,1019.8999
78.7359,1017.8707
78.7579,1002.7934
78.7799,991.998
78.8019,1018.3748
78.8239,1036.7213
78.8459,973.3418
78.8679,1046.8481
78.8899,1014.457
78.9119,1012.0261
78.9339,1006.0826
78.9559,1026.9692
78.9779,993.303
78.9999,1021.416
79.0219,1036.8403
79.0439,977.4753
79.0659,970.1193
79.0879,1019.2891
79.1099,1018.1796
79.1319,969.5838
79.1539,1003.8732
79.1759,1012.093
79.1979,1010.3712
79.2199,949.7523
79.2419,966.4909
79.2639,1001.1706
79.2859,1005.1093
79.3079,1015.2914
79.3299,989.626
79.3519,957.0326
79.3739,977.3588
79.3959,970.0636
79.4179,993.2035
79.4399,997.4127
79.4619,1007.5326
79.4839,980.0342
79.5059,998.6025
79.5279,954.9598
79.5499,941.0743
79.5719,1021.9316
79.5939,1018.5636
79.6159,971.6245
79.6379,1020.8543
79.6599,991.9876
79.6819,985.2744
79.7039,1005.5778
79.7259,1010.4256
79.7479,1006.0561
