Pos. [°2?],Intensity [Counts]
6.9279,6219.5123
6.9499,6131.6283
6.9719,6094.3559
6.9939,6037.5634
7.0159,6111.9396
7.0379,5960.175
7.0599,6116.5399
7.0819,6107.0678
7.1039,6063.762
7.1259,6150.0335
7.1479,6134.0619
7.1699,5927.3293
7.1919,5965.4528
7.2139,5980.2566
7.2359,6066.532
7.2579,6036.2625
7.2799,6075.0339
7.3019,5950.3795
7.3239,5978.3024
7.3459,5907.6371
7.3679,6112.7988
7.3899,5766.2586
7.4119,5847.2419
7.4339,5921.3717
7.4559,5831.0545
7.4779,5758.7021
7.4999,5744.3997
7.5219,5796.5526
7.5439,5794.1372
7.5659,5815.9656
7.5879,5832.6824
7.6099,5791.9115
7.6319,5809.5472
7.6539,5787.2497
7.6759,5708.4661
7.6979,5801.6047
7.7199,5727.3898
7.7419,5660.5044
7.7639,5715.3038
7.7859,5714.057
7.8079,5699.6194
7.8299,5632.1417
7.8519,5755.6986
7.8739,5680.003
7.8959,5698.1308
7.9179,5728.6893
7.9399,5703.4513
7.9619,5633.2232
7.9839,5657.5237
8.0059,5710.0206
8.0279,5593.9061
8.0499,5575.8505
8.0719,5483.41
8.0939,5452.6274
8.1159,5576.6347
8.1379,5543.5398
8.1599,5522.7685
8.1819,5610.4868
8.2039,5653.9439
8.2259,5634.586
8.2479,5652.2984
8.2699,5667.9262
8.2919,5596.4827
8.3139,5517.9774
8.3359,5584.6372
8.3579,5671.3658
8.3799,5655.2832
8.4019,5612.2419
8.4239,5530.351
8.4459,5497.3255
8.4679,5481.2802
8.4899,5479.8663
8.5119,5468.7227
8.5339,5530.0354
8.5559,5473.9306
8.5779,5439.9095
8.5999,5414.8717
8.6219,5403.8161
8.6439,5478.0649
8.6659,5410.823
8.6879,5463.9086
8.7099,5473.1573
8.7319,5358.0663
8.7539,5511.6668
8.7759,5547.6185
8.7979,5420.2389
8.8199,5275.9488
8.8419,5445.1584
8.8639,5339.9734
8.8859,5466.9775
8.9079,5351.4704
8.9299,5294.8318
8.9519,5353.9646
8.9739,5343.9862
8.9959,5430.559
9.0179,5284.4798
9.0399,5245.7483
9.0619,5274.3953
9.0839,5352.9715
9.1059,5336.5113
9.1279,5319.2257
9.1499,5375.944
9.1719,5215.3909
9.1939,5340.3747
9.2159,5478.2414
9.2379,5429.2173
9.2599,5387.1666
9.2819,5293.006
9.3039,5448.3815
9.3259,5451.3185
9.3479,5259.419
9.3699,5400.7089
9.3919,5326.2359
9.4139,5247.4091
9.4359,5333.4719
9.4579,5277.6962
9.4799,5259.5187
9.5019,5327.6343
9.5239,5411.9777
9.5459,5229.9853
9.5679,5358.0005
9.5899,5333.5693
9.6119,5315.7738
9.6339,5214.942
9.6559,5292.5074
9.6779,5268.4257
9.6999,5192.8014
9.7219,5251.0001
9.7439,5366.0507
9.7659,5410.3992
9.7879,5280.1076
9.8099,5168.0325
9.8319,5210.1824
9.8539,5304.888
9.8759,5344.85
9.8979,5274.4169
9.9199,5248.3893
9.9419,5294.2351
9.9639,5298.5284
9.9859,5211.2272
10.0079,5241.2596
10.0299,5235.9813
10.0519,5257.621
10.0739,5253.2684
10.0959,5209.9538
10.1179,5256.239
10.1399,5327.5634
10.1619,5329.7119
10.1839,5243.1459
10.2059,5243.1318
10.2279,5311.8614
10.2499,5391.1298
10.2719,5391.4483
10.2939,5344.1121
10.3159,5337.8053
10.3379,5338.0236
10.3599,5307.6489
10.3819,5259.6342
10.4039,5161.4463
10.4259,5256.9893
10.4479,5244.823
10.4699,5124.2575
10.4919,5088.5025
10.5139,5102.4602
10.5359,5117.0536
10.5579,5156.1397
10.5799,5095.7817
10.6019,5130.6647
10.6239,5056.6356
10.6459,5174.0738
10.6679,5117.1371
10.6899,5169.8919
10.7119,4965.6945
10.7339,5185.9323
10.7559,5211.8299
10.7779,5184.6519
10.7999,5015.3268
10.8219,5061.6539
10.8439,5093.4174
10.8659,5095
10.8879,5049.4095
10.9099,5045.0531
10.9319,4941.5624
10.9539,5068.9243
10.9759,5059.1888
10.9979,5122.3599
11.0199,5192.2433
11.0419,5135.3629
11.0639,5185.3028
11.0859,5095.2901
11.1079,5106.8407
11.1299,5090.3088
11.1519,5196.1371
11.1739,5070.8997
11.1959,5034.2626
11.2179,5065.8663
11.2399,5101.5
11.2619,5143.3383
11.2839,5220.7664
11.3059,5074.5752
11.3279,5064.0359
11.3499,5044.4031
11.3719,5027.4601
11.3939,4980.3864
11.4159,4983.4494
11.4379,5073.177
11.4599,5048.4439
11.4819,5041.9047
11.5039,5069.6902
11.5259,5051.529
11.5479,5084.3083
11.5699,5046.5279
11.5919,4923.7129
11.6139,4979.6687
11.6359,4982.494
11.6579,4898.1907
11.6799,4899.2867
11.7019,5018.3099
11.7239,5057.4394
11.7459,5032.7651
11.7679,5046.4468
11.7899,5011.1239
11.8119,5045.1101
11.8339,5109.7966
11.8559,5044.6552
11.8779,4913.3845
11.8999,4883.6947
11.9219,4944.3443
11.9439,5022.3997
11.9659,5041.0177
11.9879,5070.4597
12.0099,5122.005
12.0319,5072.6843
12.0539,5099.5724
12.0759,5100.0054
12.0979,5142.4779
12.1199,5125.3603
12.1419,5215.6963
12.1639,5209.8082
12.1859,5205.7218
12.2079,5153.3274
12.2299,5055.7433
12.2519,4995.7895
12.2739,5045.0364
12.2959,5016.0619
12.3179,5056.9007
12.3399,5020.0958
12.3619,5031.9794
12.3839,4993.8751
12.4059,4973.1829
12.4279,4887.1312
12.4499,4877.5841
12.4719,4930.298
12.4939,4991.0354
12.5159,5072.0025
12.5379,4997.2753
12.5599,5053.0015
12.5819,4985.7699
12.6039,4990.1446
12.6259,5102.9794
12.6479,4973.6789
12.6699,4990.1741
12.6919,4949.9292
12.7139,4997.5182
12.7359,4854.2877
12.7579,4969.6725
12.7799,4884.6505
12.8019,5018.0059
12.8239,5066.3289
12.8459,5057.707
12.8679,5116.1913
12.8899,5152.3096
12.9119,5011.3811
12.9339,5089.526
12.9559,4981.2655
12.9779,4997.7639
12.9999,4898.4411
13.0219,5043.6165
13.0439,5023.3359
13.0659,5164.9331
13.0879,5083.6504
13.1099,5058.7179
13.1319,5138.9081
13.1539,5125.6371
13.1759,5055.2139
13.1979,5044.6823
13.2199,4987.736
13.2419,5098.5892
13.2639,5202.3779
13.2859,5098.5664
13.3079,5137.7802
13.3299,5063.9203
13.3519,5027.3304
13.3739,5100.1967
13.3959,5139.3352
13.4179,5013.8229
13.4399,4973.8222
13.4619,5133.5596
13.4839,5127.0751
13.5059,5071.6196
13.5279,5121.5373
13.5499,5128.8909
13.5719,5092.9807
13.5939,5020.2999
13.6159,5036.8702
13.6379,5092.5625
13.6599,5149.4858
13.6819,5174.7434
13.7039,5147.9714
13.7259,5127.1111
13.7479,5127.4823
13.7699,5080.9704
13.7919,5075.6972
13.8139,5191.1742
13.8359,5202.937
13.8579,5127.2074
13.8799,5202.7302
13.9019,5254.4228
13.9239,5188.0471
13.9459,5224.5252
13.9679,5285.3211
13.9899,5255.114
14.0119,5299.2346
14.0339,5272.3382
14.0559,5201.9454
14.0779,5383.3365
14.0999,5249.4644
14.1219,5281.2154
14.1439,5326.9381
14.1659,5390.5006
14.1879,5411.5093
14.2099,5437.7788
14.2319,5461.4415
14.2539,5539.8477
14.2759,5423.5751
14.2979,5344.3667
14.3199,5475.3241
14.3419,5524.4897
14.3639,5436.8003
14.3859,5542.6117
14.4079,5403.0839
14.4299,5569.4898
14.4519,5564.5826
14.4739,5396.5662
14.4959,5521.1324
14.5179,5365.3106
14.5399,5525.8023
14.5619,5412.6736
14.5839,5478.8912
14.6059,5308.7256
14.6279,5274.7309
14.6499,5142.2055
14.6719,5112.5265
14.6939,5043.7345
14.7159,5076.624
14.7379,5213.6047
14.7599,5198.0146
14.7819,5072.9479
14.8039,5085.5869
14.8259,4989.8348
14.8479,4971.888
14.8699,5066.6902
14.8919,5042.6509
14.9139,5013.3058
14.9359,5059.9573
14.9579,5086.6598
14.9799,5045.2276
15.0019,5012.3334
15.0239,5108.475
15.0459,5104.9075
15.0679,5013.9159
15.0899,5025.8457
15.1119,5046.3402
15.1339,5058.3452
15.1559,5064.8584
15.1779,5012.0285
15.1999,4985.9277
15.2219,5022.1771
15.2439,5051.8726
15.2659,5110.0267
15.2879,5158.4797
15.3099,5060.0226
15.3319,4996.1725
15.3539,4957.3481
15.3759,4977.3869
15.3979,4977.5516
15.4199,5036.742
15.4419,5020.8612
15.4639,4998.5488
15.4859,5048.8496
15.5079,5056.3068
15.5299,4986.3185
15.5519,5014.6299
15.5739,5026.4316
15.5959,4958.584
15.6179,4968.2419
15.6399,5019.2439
15.6619,5050.1062
15.6839,5031.6711
15.7059,5084.8369
15.7279,5071.817
15.7499,5020.8603
15.7719,5142.8345
15.7939,5078.0116
15.8159,5023.6608
15.8379,5111.7307
15.8599,5139.5133
15.8819,5120.5182
15.9039,5108.0487
15.9259,5052.643
15.9479,5206.954
15.9699,5088.9605
15.9919,5135.6181
16.0139,5269.9018
16.0359,5113.6232
16.0579,5143.6638
16.0799,5170.5433
16.1019,5112.9567
16.1239,5200.7951
16.1459,5109.4443
16.1679,5250.7775
16.1899,5345.0974
16.2119,5113.9442
16.2339,5261.6885
16.2559,5075.1945
16.2779,5166.1505
16.2999,5101.4282
16.3219,5110.0118
16.3439,5113.5281
16.3659,5190.0558
16.3879,5003.9086
16.4099,5070.2665
16.4319,5102.036
16.4539,5233.9911
16.4759,5155.5743
16.4979,5193.4033
16.5199,5295.8053
16.5419,5271.4711
16.5639,5303.3745
16.5859,5197.5163
16.6079,5231.3785
16.6299,5207.238
16.6519,5244.6503
16.6739,5160.2578
16.6959,5288.6051
16.7179,5237.59
16.7399,5250.9012
16.7619,5290.8516
16.7839,5332.3599
16.8059,5258.6871
16.8279,5134.3497
16.8499,5245.469
16.8719,5258.8944
16.8939,5309.1277
16.9159,5263.9676
16.9379,5304.4493
16.9599,5265.5633
16.9819,5254.3335
17.0039,5350.15
17.0259,5326.9241
17.0479,5274.7966
17.0699,5346.5949
17.0919,5369.7218
17.1139,5413.7316
17.1359,5442.4833
17.1579,5457.3776
17.1799,5477.354
17.2019,5495.3501
17.2239,5593.8079
17.2459,5641.7699
17.2679,5590.7285
17.2899,5713.078
17.3119,5908.7568
17.3339,5795.6123
17.3559,5725.4401
17.3779,5779.8968
17.3999,5760.8082
17.4219,5630.3184
17.4439,5513.2787
17.4659,5465.0039
17.4879,5320.5627
17.5099,5354.7907
17.5319,5460.5527
17.5539,5404.7786
17.5759,5419.1608
17.5979,5487.4396
17.6199,5383.1797
17.6419,5356.5841
17.6639,5427.2307
17.6859,5429.5693
17.7079,5537.9146
17.7299,5465.3863
17.7519,5493.5325
17.7739,5562.5635
17.7959,5521.0889
17.8179,5354.2869
17.8399,5395.0266
17.8619,5387.942
17.8839,5370.943
17.9059,5360.0914
17.9279,5324.6804
17.9499,5362.1947
17.9719,5478.2553
17.9939,5347.8769
18.0159,5166.6315
18.0379,5148.354
18.0599,5345.3326
18.0819,5403.416
18.1039,5243.1048
18.1259,5313.3667
18.1479,5267.8437
18.1699,5265.7582
18.1919,5360
18.2139,5350.875
18.2359,5218.2346
18.2579,5265.6137
18.2799,5342.4051
18.3019,5331.6668
18.3239,5409.2372
18.3459,5240.2526
18.3679,5210.6226
18.3899,5355.0649
18.4119,5334.4134
18.4339,5296.2656
18.4559,5355.1515
18.4779,5379.5772
18.4999,5371.1739
18.5219,5289.3599
18.5439,5269.7635
18.5659,5265.2212
18.5879,5260.5531
18.6099,5262.5251
18.6319,5290.2257
18.6539,5325.6864
18.6759,5334.4379
18.6979,5231.6666
18.7199,5262.7658
18.7419,5364.1867
18.7639,5272.7448
18.7859,5310.1673
18.8079,5325.7274
18.8299,5272.5488
18.8519,5269.8031
18.8739,5228.5194
18.8959,5310.2374
18.9179,5251.0255
18.9399,5265.1895
18.9619,5283.6665
18.9839,5303.8989
19.0059,5329.9104
19.0279,5262.0221
19.0499,5274.4396
19.0719,5339.8403
19.0939,5308.342
19.1159,5273.2734
19.1379,5233.5594
19.1599,5227.7125
19.1819,5278.1682
19.2039,5313.8648
19.2259,5399.1417
19.2479,5368.0485
19.2699,5275.0736
19.2919,5244.0088
19.3139,5273.1643
19.3359,5254.8908
19.3579,5363.5636
19.3799,5335.992
19.4019,5247.3214
19.4239,5194.2256
19.4459,5367.8027
19.4679,5278.5863
19.4899,5250.6195
19.5119,5218.171
19.5339,5256.0237
19.5559,5140.4084
19.5779,5265.2706
19.5999,5220.9714
19.6219,5273.1151
19.6439,5239.322
19.6659,5239.8673
19.6879,5260.5015
19.7099,5277.3796
19.7319,5360.0803
19.7539,5325.528
19.7759,5255.5727
19.7979,5214.0324
19.8199,5027.6458
19.8419,5068.6235
19.8639,5231.5007
19.8859,5252.944
19.9079,5149.2986
19.9299,5286.8918
19.9519,5285.2228
19.9739,5371.7314
19.9959,5262.649
20.0179,5252.7521
20.0399,5205.8074
20.0619,5292.6036
20.0839,5205.6285
20.1059,5299.9606
20.1279,5268.0716
20.1499,5170.7317
20.1719,5274.5843
20.1939,5360.3144
20.2159,5193.708
20.2379,5253.3394
20.2599,5322.55
20.2819,5256.233
20.3039,5267.9707
20.3259,5351.812
20.3479,5246.6549
20.3699,5252.6853
20.3919,5274.2997
20.4139,5400.3184
20.4359,5259.4369
20.4579,5222.9943
20.4799,5308.9469
20.5019,5263.0902
20.5239,5151.5767
20.5459,5243.7113
20.5679,5372.9354
20.5899,5301.9568
20.6119,5292.1503
20.6339,5244.7139
20.6559,5264.6903
20.6779,5342.6875
20.6999,5319.2076
20.7219,5225.9136
20.7439,5275.8112
20.7659,5270.7148
20.7879,5279.5364
20.8099,5230.7609
20.8319,5168.0511
20.8539,5189.4386
20.8759,5242.7597
20.8979,5291.6854
20.9199,5373.0941
20.9419,5377.9733
20.9639,5282.8735
20.9859,5183.1208
21.0079,5307.3411
21.0299,5283.7608
21.0519,5312.9201
21.0739,5330.9793
21.0959,5349.3452
21.1179,5292.2968
21.1399,5377.2967
21.1619,5476.5655
21.1839,5510.4445
21.2059,5448.4246
21.2279,5475.5296
21.2499,5524.123
21.2719,5421.3774
21.2939,5331.5751
21.3159,5345.4509
21.3379,5369.1652
21.3599,5306.5353
21.3819,5298.6627
21.4039,5250.1371
21.4259,5414.1999
21.4479,5298.6271
21.4699,5284.9381
21.4919,5336.975
21.5139,5268.6597
21.5359,5346.4559
21.5579,5284.1621
21.5799,5313.9081
21.6019,5290.1947
21.6239,5344.1785
21.6459,5294.0422
21.6679,5235.4276
21.6899,5272.5574
21.7119,5184.9102
21.7339,5296.2125
21.7559,5366.0746
21.7779,5290.9958
21.7999,5166.1995
21.8219,5377.6401
21.8439,5348.9995
21.8659,5340.7552
21.8879,5362.9322
21.9099,5419.5792
21.9319,5421.0204
21.9539,5272.8367
21.9759,5249.3055
21.9979,5349.8763
22.0199,5403.8503
22.0419,5282.6283
22.0639,5293.5781
22.0859,5277.8338
22.1079,5264.1386
22.1299,5298.3778
22.1519,5366.714
22.1739,5220.6049
22.1959,5316.186
22.2179,5332.0174
22.2399,5254.3901
22.2619,5350.6165
22.2839,5354.2582
22.3059,5378.169
22.3279,5334.6977
22.3499,5365.7926
22.3719,5430.6299
22.3939,5458.2654
22.4159,5424.9159
22.4379,5330.7795
22.4599,5295.3572
22.4819,5409.0276
22.5039,5437.2984
22.5259,5477.7582
22.5479,5435.2529
22.5699,5445.8017
22.5919,5482.8671
22.6139,5445.0148
22.6359,5423.725
22.6579,5384.4543
22.6799,5438.1275
22.7019,5502.1013
22.7239,5550.6255
22.7459,5602.5546
22.7679,5543.0667
22.7899,5520.4956
22.8119,5549.3717
22.8339,5570.8132
22.8559,5604.5974
22.8779,5674.1653
22.8999,5772.1354
22.9219,5715.575
22.9439,5733.1461
22.9659,5789.301
22.9879,5783.7477
23.0099,5797.0443
23.0319,5760.9837
23.0539,5800.6874
23.0759,5854.4042
23.0979,5834.1297
23.1199,5985.9634
23.1419,5895.2357
23.1639,5922.3325
23.1859,5795.2829
23.2079,5881.5961
23.2299,5885.4247
23.2519,5892.6534
23.2739,5862.8544
23.2959,5810.2831
23.3179,5905.5901
23.3399,5744.4786
23.3619,5846.5017
23.3839,5893.0045
23.4059,5902.709
23.4279,5836.638
23.4499,5713.4511
23.4719,5814.966
23.4939,5746.9972
23.5159,5825.2538
23.5379,5869.4039
23.5599,5755.5685
23.5819,5849.8143
23.6039,5937.6324
23.6259,5761.0563
23.6479,5920.4941
23.6699,5922.2222
23.6919,5903.8255
23.7139,5906.982
23.7359,5777.0858
23.7579,5910.8014
23.7799,5913.9646
23.8019,5909
23.8239,5920.0404
23.8459,5979.4514
23.8679,6024.909
23.8899,6011.4878
23.9119,6092.1978
23.9339,6128.9153
23.9559,6079.7553
23.9779,6138.4513
23.9999,6157.1157
24.0219,6229.6186
24.0439,6313.0504
24.0659,6453.2646
24.0879,6660.6035
24.1099,7008.1182
24.1319,7170.7678
24.1539,7518.9143
24.1759,8010.7618
24.1979,8474.0795
24.2199,8917.0891
24.2419,9132.7965
24.2639,9111.5888
24.2859,8890.8293
24.3079,8404.9223
24.3299,7697.4834
24.3519,7067.4761
24.3739,6640.2206
24.3959,6264.7993
24.4179,6089.9488
24.4399,6132.9648
24.4619,6120.5337
24.4839,6106.6894
24.5059,6050.634
24.5279,6031.5611
24.5499,6001.7383
24.5719,6000.9028
24.5939,6013.9626
24.6159,6001.6037
24.6379,6005.1711
24.6599,5957.8558
24.6819,5891.4099
24.7039,5932.6137
24.7259,6013.2823
24.7479,5922.5735
24.7699,5915.4603
24.7919,6006.7475
24.8139,6009.9921
24.8359,6014.9632
24.8579,6048.4435
24.8799,5903.5115
24.9019,6001.8971
24.9239,5915.2446
24.9459,5907.5998
24.9679,6067.549
24.9899,5851.913
25.0119,5952.6257
25.0339,6071.1742
25.0559,6115.9907
25.0779,5898.2582
25.0999,5858.4395
25.1219,5899.4268
25.1439,5958.1422
25.1659,5898.5574
25.1879,5826.8971
25.2099,5933.778
25.2319,5846.4925
25.2539,5894.8034
25.2759,5944.6374
25.2979,5782.9587
25.3199,5785.1836
25.3419,5898.0488
25.3639,5692.4293
25.3859,5778.6139
25.4079,5936.4356
25.4299,5695.1833
25.4519,5910.3471
25.4739,5942.9687
25.4959,6029.4173
25.5179,5955.2329
25.5399,5896.7665
25.5619,5934.7257
25.5839,5964.5717
25.6059,5981.5706
25.6279,6069.8211
25.6499,5880.6096
25.6719,5865.112
25.6939,5836.4365
25.7159,5807.816
25.7379,5794.186
25.7599,5801.2829
25.7819,5659.1336
25.8039,5622.8408
25.8259,5692.5694
25.8479,5705.8145
25.8699,5626.9478
25.8919,5628.071
25.9139,5711.8624
25.9359,5768.0528
25.9579,5762.5926
25.9799,5681.4435
26.0019,5652.7058
26.0239,5584.4587
26.0459,5590.1564
26.0679,5627.7385
26.0899,5547.4067
26.1119,5448.771
26.1339,5497.4347
26.1559,5554.0001
26.1779,5532.697
26.1999,5531.3601
26.2219,5441.7075
26.2439,5395.8424
26.2659,5475.8968
26.2879,5514.2287
26.3099,5535.2744
26.3319,5571.3098
26.3539,5516.0617
26.3759,5427.1336
26.3979,5477.3188
26.4199,5503.8126
26.4419,5506.8761
26.4639,5490.1494
26.4859,5403.0352
26.5079,5332.4704
26.5299,5295.0226
26.5519,5349.4692
26.5739,5411.4101
26.5959,5431.7124
26.6179,5331.6546
26.6399,5285.1327
26.6619,5305.2636
26.6839,5332.6697
26.7059,5314.5889
26.7279,5286.0521
26.7499,5305.1239
26.7719,5299.8702
26.7939,5281.7276
26.8159,5338.9426
26.8379,5303.0677
26.8599,5324.6928
26.8819,5286.3421
26.9039,5411.4236
26.9259,5336.4924
26.9479,5283.8185
26.9699,5323.0099
26.9919,5251.5033
27.0139,5130.4983
27.0359,5128
27.0579,5180.8505
27.0799,5146.5535
27.1019,5355.4981
27.1239,5129.2662
27.1459,5023.6816
27.1679,5118.134
27.1899,5027.302
27.2119,5108.7816
27.2339,5050.8868
27.2559,5025.2452
27.2779,5160.4275
27.2999,5062.965
27.3219,5027.8543
27.3439,4968.7079
27.3659,4985.6896
27.3879,5124.5192
27.4099,5132.1651
27.4319,5117.3582
27.4539,5162.0171
27.4759,4923.2347
27.4979,4987.9971
27.5199,4985.732
27.5419,4914.7696
27.5639,4808.9936
27.5859,4822.832
27.6079,4890.9633
27.6299,4944.3235
27.6519,4915.4502
27.6739,4864.3098
27.6959,4859.9812
27.7179,4811.23
27.7399,4814.1816
27.7619,4884.6569
27.7839,4939.7533
27.8059,4921.693
27.8279,4910.3429
27.8499,5021.5881
27.8719,5102.8247
27.8939,5090.7126
27.9159,5039.4317
27.9379,5045.6017
27.9599,5003.5279
27.9819,4964.117
28.0039,4959.2596
28.0259,4897.0863
28.0479,4870.9657
28.0699,4851.8701
28.0919,4826.3978
28.1139,4886.8271
28.1359,4945.6107
28.1579,4879.8336
28.1799,4742.691
28.2019,4790.6758
28.2239,4933.8184
28.2459,5040.7563
28.2679,4926.8521
28.2899,5050.0566
28.3119,5029.3212
28.3339,5226.5671
28.3559,5384.7032
28.3779,5327.1876
28.3999,5305.0295
28.4219,5136.9524
28.4439,4926.2326
28.4659,4757.6722
28.4879,4749.0856
28.5099,4681.637
28.5319,4623.6282
28.5539,4536.0657
28.5759,4508.2197
28.5979,4392.7755
28.6199,4559.9626
28.6419,4474.8886
28.6639,4491.6402
28.6859,4459.3746
28.7079,4499.5109
28.7299,4546.1505
28.7519,4609.8222
28.7739,4525.4
28.7959,4485.9277
28.8179,4542.2587
28.8399,4793.8771
28.8619,4470.0267
28.8839,4556.4337
28.9059,4574.1819
28.9279,4582.894
28.9499,4654.8543
28.9719,4587.7034
28.9939,4537.7874
29.0159,4445.3037
29.0379,4410.8104
29.0599,4486.652
29.0819,4507.3371
29.1039,4432.7621
29.1259,4459.4158
29.1479,4397.8044
29.1699,4428.9067
29.1919,4448.3066
29.2139,4402.9697
29.2359,4487.8035
29.2579,4501.0735
29.2799,4394.2827
29.3019,4368.3902
29.3239,4359.2039
29.3459,4491.0491
29.3679,4450.9614
29.3899,4394.0326
29.4119,4397.6876
29.4339,4313.4492
29.4559,4294.2759
29.4779,4368.2391
29.4999,4442.679
29.5219,4409.628
29.5439,4366.0681
29.5659,4362.3713
29.5879,4287.2877
29.6099,4294.226
29.6319,4289.6353
29.6539,4341.0797
29.6759,4320.6089
29.6979,4320.3227
29.7199,4277.7341
29.7419,4172.9656
29.7639,4270.6312
29.7859,4312.0853
29.8079,4295.9593
29.8299,4282.0018
29.8519,4224.2742
29.8739,4188.6843
29.8959,4115.2835
29.9179,4031.4777
29.9399,4063.5641
29.9619,4110.3953
29.9839,4097.4793
30.0059,4032.9723
30.0279,4078.9447
30.0499,4047.4216
30.0719,3981.673
30.0939,4026.5085
30.1159,3985.0352
30.1379,4054.3828
30.1599,4075.5236
30.1819,4089.4809
30.2039,4069.3455
30.2259,3941.0537
30.2479,4021.5623
30.2699,4002.699
30.2919,4011.0787
30.3139,4063.7346
30.3359,4082.353
30.3579,4092.4759
30.3799,4126.6756
30.4019,4172.1201
30.4239,4211.6097
30.4459,4167.5751
30.4679,4134.7285
30.4899,4296.9198
30.5119,4257.7831
30.5339,4270.0807
30.5559,4372.5705
30.5779,4375.059
30.5999,4277.7033
30.6219,4458.1007
30.6439,4564.7336
30.6659,4800.1635
30.6879,4915.7021
30.7099,5163.2928
30.7319,5492.9767
30.7539,5868.3302
30.7759,6213.1903
30.7979,6267.4255
30.8199,6606.6983
30.8419,7138.2876
30.8639,7790.3941
30.8859,8424.303
30.9079,9451.7949
30.9299,10825.6388
30.9519,12623.1181
30.9739,15062.421
30.9959,17117.271
31.0179,17873.2952
31.0399,16898.7559
31.0619,15163.8225
31.0839,12976.4141
31.1059,10246.8882
31.1279,7932.3295
31.1499,6388.6622
31.1719,5426.9544
31.1939,4872.5655
31.2159,4589.7689
31.2379,4567.1268
31.2599,4474.0463
31.2819,4353.3678
31.3039,4374.0177
31.3259,4314.8649
31.3479,4181.9586
31.3699,4139.3923
31.3919,4128.2989
31.4139,4084.869
31.4359,4144.9136
31.4579,4228.4668
31.4799,4113.2864
31.5019,4110.5135
31.5239,4175.9843
31.5459,4144.1178
31.5679,4161.5017
31.5899,4192.7079
31.6119,4141.4645
31.6339,4109.0767
31.6559,4006.9116
31.6779,3937.6805
31.6999,3985.2037
31.7219,4021.706
31.7439,3914.0527
31.7659,3903.7141
31.7879,3888.5116
31.8099,3917.9982
31.8319,4055.0461
31.8539,4123.7179
31.8759,4206.133
31.8979,4210.6813
31.9199,4266.7042
31.9419,4380.1733
31.9639,4309.9569
31.9859,4417.3407
32.0079,4412.2181
32.0299,4278.9613
32.0519,4280.1422
32.0739,4184.1816
32.0959,4023.1147
32.1179,4012.1102
32.1399,4017.6863
32.1619,3866.5837
32.1839,3906.0813
32.2059,3899.2792
32.2279,3958.571
32.2499,3861.9683
32.2719,3882.1751
32.2939,4005.7968
32.3159,4039.4789
32.3379,4022.878
32.3599,4163.0475
32.3819,4047.6605
32.4039,4242.1416
32.4259,4538.8022
32.4479,4474.0731
32.4699,4608.9637
32.4919,4639.6148
32.5139,4567.0161
32.5359,4719.5999
32.5579,4546.9437
32.5799,4462.267
32.6019,4455.8847
32.6239,4353.5349
32.6459,4195.0621
32.6679,4222.08
32.6899,4010.4869
32.7119,4071.7241
32.7339,4023.2999
32.7559,3988.9052
32.7779,3854.998
32.7999,3864.9332
32.8219,3862.339
32.8439,3793.0808
32.8659,3824.103
32.8879,3758.3894
32.9099,3732.6852
32.9319,3697.1397
32.9539,3726.1268
32.9759,3722.2739
32.9979,3716.5839
33.0199,3720.5121
33.0419,3795.0993
33.0639,3744.1074
33.0859,3670.7699
33.1079,3616.6993
33.1299,3537.1888
33.1519,3560.6535
33.1739,3647.5519
33.1959,3698.8779
33.2179,3543.9521
33.2399,3459.7427
33.2619,3503.339
33.2839,3481.7744
33.3059,3554.9324
33.3279,3543.1187
33.3499,3459.7521
33.3719,3423.4616
33.3939,3429.2066
33.4159,3460.9012
33.4379,3468.59
33.4599,3393.421
33.4819,3437.6464
33.5039,3476.7654
33.5259,3483.7002
33.5479,3464.3612
33.5699,3444
33.5919,3452.5069
33.6139,3432.9999
33.6359,3382.9782
33.6579,3403.7101
33.6799,3419.5929
33.7019,3364.5967
33.7239,3474.0624
33.7459,3460.8051
33.7679,3439
33.7899,3448.18
33.8119,3357.7254
33.8339,3450.2265
33.8559,3389.7849
33.8779,3367.8142
33.8999,3329.1567
33.9219,3395.6482
33.9439,3408.2979
33.9659,3436.4898
33.9879,3368.3238
34.0099,3429.0326
34.0319,3339.8783
34.0539,3407.4742
34.0759,3501.0047
34.0979,3441.4679
34.1199,3413.2659
34.1419,3253.327
34.1639,3331.7333
34.1859,3385.2843
34.2079,3489.8469
34.2299,3490.6816
34.2519,3553.1618
34.2739,3554.6191
34.2959,3404.0893
34.3179,3328.8792
34.3399,3374
34.3619,3386.8539
34.3839,3505.176
34.4059,3321.5873
34.4279,3415.1648
34.4499,3456.7029
34.4719,3387.2256
34.4939,3370.2084
34.5159,3361.3937
34.5379,3353.9973
34.5599,3404.2141
34.5819,3352.4279
34.6039,3406.0338
34.6259,3382.7416
34.6479,3428.1895
34.6699,3372.1862
34.6919,3459.2506
34.7139,3400.5948
34.7359,3378.1092
34.7579,3376.9911
34.7799,3358.68
34.8019,3358.463
34.8239,3314.6076
34.8459,3324.9816
34.8679,3388.1239
34.8899,3379.1387
34.9119,3426.8454
34.9339,3514.9736
34.9559,3515.431
34.9779,3459.5643
34.9999,3455.6963
35.0219,3468.4148
35.0439,3486.9717
35.0659,3645.8236
35.0879,3718.4929
35.1099,3632.8327
35.1319,3670.0358
35.1539,3672.1737
35.1759,3540.6506
35.1979,3570.1214
35.2199,3590.3001
35.2419,3514.58
35.2639,3443.5086
35.2859,3468.075
35.3079,3486.3814
35.3299,3385.8226
35.3519,3308.1312
35.3739,3325.8477
35.3959,3385.3836
35.4179,3290.9799
35.4399,3296.8144
35.4619,3257.8847
35.4839,3302.9865
35.5059,3292.4728
35.5279,3335.8793
35.5499,3342.7826
35.5719,3384.3949
35.5939,3361.9025
35.6159,3308.6016
35.6379,3297
35.6599,3318.0532
35.6819,3287.6528
35.7039,3300.858
35.7259,3311.7729
35.7479,3300.1165
35.7699,3255.3116
35.7919,3237.5147
35.8139,3264.6648
35.8359,3159.9402
35.8579,3262.2039
35.8799,3245.8859
35.9019,3239.2753
35.9239,3370.1405
35.9459,3312.9811
35.9679,3265.8367
35.9899,3329.6167
36.0119,3353.3606
36.0339,3253.9253
36.0559,3246.2829
36.0779,3132.7691
36.0999,3191.9443
36.1219,3157.3392
36.1439,3160.7979
36.1659,3139.6055
36.1879,3072.3408
36.2099,3122.2125
36.2319,3155.9396
36.2539,3161.9202
36.2759,3123.3088
36.2979,3162.2883
36.3199,3243.2833
36.3419,3250.9821
36.3639,3208.3251
36.3859,3240.354
36.4079,3274.4213
36.4299,3411.4357
36.4519,3451.4778
36.4739,3439.5034
36.4959,3416.7585
36.5179,3366.2948
36.5399,3330.3021
36.5619,3349.3783
36.5839,3239.8625
36.6059,3155.2497
36.6279,3160.8261
36.6499,3148.097
36.6719,3120.8917
36.6939,3204
36.7159,3191.2094
36.7379,3164.172
36.7599,3165.3044
36.7819,3173.705
36.8039,3117.6639
36.8259,3057.8495
36.8479,3073.3585
36.8699,3096
36.8919,3093.0118
36.9139,3185.9415
36.9359,3203.2656
36.9579,3125.3716
36.9799,3132.8688
37.0019,3146.5595
37.0239,3113.8366
37.0459,3094.2567
37.0679,3106.9455
37.0899,3085.0018
37.1119,3008.0101
37.1339,3045.4556
37.1559,3011.1821
37.1779,2987.419
37.1999,3040.5572
37.2219,3067.4592
37.2439,3004.0042
37.2659,3056.3032
37.2879,3092.8771
37.3099,3047.9113
37.3319,3037.6947
37.3539,2975.7274
37.3759,3036.4546
37.3979,2987.6113
37.4199,3011.4092
37.4419,3126.8853
37.4639,3072.6925
37.4859,3056.6598
37.5079,3059.5266
37.5299,3033.5112
37.5519,3009.0643
37.5739,3020.944
37.5959,3104.1128
37.6179,2985.683
37.6399,3012.301
37.6619,3011.3589
37.6839,3044.8585
37.7059,3014.6046
37.7279,2964.7452
37.7499,3069.5352
37.7719,2957.1973
37.7939,2966.3368
37.8159,3135.2745
37.8379,3017.54
37.8599,3073.1843
37.8819,3053.1023
37.9039,3051.1945
37.9259,2994.3186
37.9479,2986.088
37.9699,2991.4131
37.9919,3020.6418
38.0139,2951.3631
38.0359,3010.2915
38.0579,2876.3547
38.0799,3110.0438
38.1019,3091.666
38.1239,2919.7205
38.1459,2996.1162
38.1679,3027.2829
38.1899,2970.598
38.2119,2996.935
38.2339,2954.1768
38.2559,2923.3892
38.2779,2999.3736
38.2999,3001.2038
38.3219,3079.8655
38.3439,3088.8501
38.3659,2972.8878
38.3879,2936.9941
38.4099,2988.5324
38.4319,3043.296
38.4539,2970.0268
38.4759,2990.7436
38.4979,2979.5519
38.5199,3037.8151
38.5419,3033.5418
38.5639,3026.4322
38.5859,3035.0001
38.6079,3036.322
38.6299,3033.5045
38.6519,3025.1538
38.6739,3032.1742
38.6959,3010.9511
38.7179,3004.3827
38.7399,3013.9453
38.7619,2984.0295
38.7839,2998.4273
38.8059,2972.5829
38.8279,2984.4737
38.8499,3024.2872
38.8719,2975.015
38.8939,2919.2713
38.9159,2920.2051
38.9379,2897.227
38.9599,2960.3676
38.9819,3053.5922
39.0039,2970.5236
39.0259,2936.947
39.0479,2980.8305
39.0699,3004.5782
39.0919,3000.0014
39.1139,2912.7047
39.1359,2959.6758
39.1579,2975.0678
39.1799,2906.014
39.2019,2941.4132
39.2239,2990.4382
39.2459,2981.9232
39.2679,2918.5662
39.2899,2860.7609
39.3119,2971.0073
39.3339,2913.5268
39.3559,2887.8805
39.3779,2915.2685
39.3999,3035.8981
39.4219,2904.0703
39.4439,3033.1888
39.4659,3001.0038
39.4879,2902.2136
39.5099,2921.0168
39.5319,2928.8107
39.5539,2945.7493
39.5759,2948.9926
39.5979,3050.2394
39.6199,2877.1377
39.6419,3058.2103
39.6639,3003.1423
39.6859,2907.009
39.7079,2954.5723
39.7299,2956.6896
39.7519,3041.8629
39.7739,3042.753
39.7959,2982.8795
39.8179,2992.3542
39.8399,3055.939
39.8619,3020.6724
39.8839,2954.4026
39.9059,2944.8272
39.9279,3026.7478
39.9499,3024.9143
39.9719,2980.3735
39.9939,2966.1035
40.0159,3039.3275
40.0379,3054.6538
40.0599,3043.3397
40.0819,3026.5426
40.1039,2977.5104
40.1259,2978.9891
40.1479,2980.4412
40.1699,3015.3648
40.1919,3034.2603
40.2139,3095.8674
40.2359,3095.163
40.2579,3040.1858
40.2799,3057.1418
40.3019,3083.6646
40.3239,3065.8934
40.3459,3093.6815
40.3679,3116.44
40.3899,3101.169
40.4119,3104.301
40.4339,3159.0906
40.4559,3166.0515
40.4779,3161.0621
40.4999,3238.0008
40.5219,3267.3273
40.5439,3213.1606
40.5659,3197.6648
40.5879,3205.1853
40.6099,3232.9117
40.6319,3195.661
40.6539,3197.7859
40.6759,3245.975
40.6979,3291.0926
40.7199,3241.6019
40.7419,3240.9382
40.7639,3316.8847
40.7859,3277.6447
40.8079,3266.2612
40.8299,3222.9418
40.8519,3244.7568
40.8739,3199.4009
40.8959,3221.3055
40.9179,3207.3607
40.9399,3045.082
40.9619,3134.3948
40.9839,3160.8849
41.0059,3117.9733
41.0279,3179.9791
41.0499,3191.2527
41.0719,3138.3331
41.0939,3129.6913
41.1159,3037.3448
41.1379,3025.4808
41.1599,3127.4876
41.1819,3117.7354
41.2039,3143.1196
41.2259,3091.7569
41.2479,3065.5717
41.2699,3157.4516
41.2919,3196.4686
41.3139,3096.3035
41.3359,3120.4632
41.3579,3104.117
41.3799,3231.8582
41.4019,3025.3988
41.4239,3210.3408
41.4459,3092.3383
41.4679,3095.1428
41.4899,3015.8812
41.5119,3083.5251
41.5339,3079.1888
41.5559,3099.7141
41.5779,3162.7008
41.5999,3072.4647
41.6219,3081.6575
41.6439,2989.7187
41.6659,2977.7288
41.6879,3047.4717
41.7099,3099.6058
41.7319,3122.0724
41.7539,3119.9897
41.7759,3002.7472
41.7979,2998.31
41.8199,3069.2808
41.8419,3073.5062
41.8639,3044.3084
41.8859,3082.3551
41.9079,3085.577
41.9299,3071.5784
41.9519,3132.9248
41.9739,3137.3137
41.9959,3134.6991
42.0179,3106.69
42.0399,3053.8776
42.0619,3048.5221
42.0839,3052.5694
42.1059,3068.233
42.1279,3050.1046
42.1499,3022.1288
42.1719,3020.5521
42.1939,2977.2032
42.2159,2888.2574
42.2379,2943.8915
42.2599,3033.0943
42.2819,2978.2898
42.3039,2972.8198
42.3259,2976.3715
42.3479,2954.5462
42.3699,3023.6966
42.3919,3036.3316
42.4139,3016.6618
42.4359,3128.5964
42.4579,3129.1176
42.4799,3101.359
42.5019,3261.8444
42.5239,3338.0427
42.5459,3314.2654
42.5679,3409.384
42.5899,3542.7703
42.6119,3653.8396
42.6339,3769.3081
42.6559,3732.1708
42.6779,3736.8763
42.6999,3857.4597
42.7219,3924.4515
42.7439,3767.4619
42.7659,3515.8251
42.7879,3355.2429
42.8099,3388.3247
42.8319,3220.8936
42.8539,3180.8289
42.8759,3111.1802
42.8979,3016.0646
42.9199,3038.363
42.9419,3043.1219
42.9639,3079.505
42.9859,3137.2568
43.0079,3013.9922
43.0299,2875.8953
43.0519,2875.3953
43.0739,3040.6653
43.0959,3005.6149
43.1179,2996.1888
43.1399,2906.0287
43.1619,2993.1352
43.1839,3129.1768
43.2059,3066.1846
43.2279,2994.8799
43.2499,2942.6048
43.2719,2969.0037
43.2939,2914.9039
43.3159,2994.7879
43.3379,3058.75
43.3599,2997.5758
43.3819,3024.9555
43.4039,2950.105
43.4259,2883.9696
43.4479,2906.4662
43.4699,2945.2106
43.4919,2991.0344
43.5139,2955.271
43.5359,2855.0225
43.5579,2814.7776
43.5799,2819.5714
43.6019,2937.1915
43.6239,2925.6828
43.6459,2990.7902
43.6679,2908.4184
43.6899,2932.1261
43.7119,2974.4513
43.7339,2973.2194
43.7559,3000.6613
43.7779,2980.044
43.7999,2901.9801
43.8219,2873.6373
43.8439,2872.2033
43.8659,2869.7388
43.8879,2959.5164
43.9099,2988.8378
43.9319,2950.7632
43.9539,2926.0513
43.9759,2981.8763
43.9979,2988.342
44.0199,2937.1797
44.0419,2939.9914
44.0639,2946.2196
44.0859,2906.6214
44.1079,2911.8851
44.1299,2882.1148
44.1519,2873.2583
44.1739,2902.7965
44.1959,2909.736
44.2179,2914.5457
44.2399,2935.7007
44.2619,2887.6772
44.2839,2860.6731
44.3059,2910.5283
44.3279,2849.534
44.3499,2879.1115
44.3719,2881.7963
44.3939,2901.5321
44.4159,2899.0574
44.4379,2869.584
44.4599,2873.3447
44.4819,2880.9538
44.5039,2902.27
44.5259,2937.9952
44.5479,3054.7699
44.5699,3056.8583
44.5919,3007.4049
44.6139,3130.2002
44.6359,3090.0941
44.6579,3060.7748
44.6799,3080.0758
44.7019,3124.4839
44.7239,3103.0432
44.7459,3095.4562
44.7679,3016.8537
44.7899,3094.4998
44.8119,2992.2621
44.8339,2851.15
44.8559,2891.2647
44.8779,2885.3628
44.8999,2970.5342
44.9219,2985.7955
44.9439,3034.8315
44.9659,2892.7698
44.9879,2869.4104
45.0099,2978.4589
45.0319,2907.332
45.0539,2954.7236
45.0759,2937.7966
45.0979,2980.4835
45.1199,2893.9635
45.1419,2862.5348
45.1639,2841.2832
45.1859,2833.6283
45.2079,2815.8392
45.2299,2816.133
45.2519,2871.8227
45.2739,2812.7407
45.2959,2891.3423
45.3179,2902.2711
45.3399,2820.1194
45.3619,2795.7787
45.3839,2794.2106
45.4059,2801.3527
45.4279,2760.959
45.4499,2790.7685
45.4719,2760.394
45.4939,2868.5661
45.5159,2816.2194
45.5379,2857.6463
45.5599,2841.9463
45.5819,2799.8966
45.6039,2864.8866
45.6259,2774.7704
45.6479,2820.4858
45.6699,2799.3033
45.6919,2896.2626
45.7139,2836.4782
45.7359,2741.0979
45.7579,2832.9829
45.7799,2943.3723
45.8019,2929.5416
45.8239,2903.8113
45.8459,2869.9584
45.8679,2818.2571
45.8899,2791.6725
45.9119,2810.9289
45.9339,2870.6816
45.9559,2937.1463
45.9779,2940.7137
45.9999,2941.2882
46.0219,2983.3482
46.0439,3054.7781
46.0659,3093.3638
46.0879,3160.8411
46.1099,3221.9755
46.1319,3303.0087
46.1539,3360.8674
46.1759,3332.2781
46.1979,3264.5022
46.2199,3152.9007
46.2419,3095.0697
46.2639,3053.2348
46.2859,2977.5631
46.3079,2880.1393
46.3299,2826.7059
46.3519,2689.5569
46.3739,2693.774
46.3959,2825.1657
46.4179,2745.7517
46.4399,2746.1383
46.4619,2777.184
46.4839,2778.5723
46.5059,2754.5309
46.5279,2751.8815
46.5499,2768.0886
46.5719,2826.1782
46.5939,2792.5092
46.6159,2666.15
46.6379,2681.5173
46.6599,2773.7501
46.6819,2811.8644
46.7039,2822.7985
46.7259,2706.9199
46.7479,2680.2613
46.7699,2739.8861
46.7919,2789.7082
46.8139,2715.9324
46.8359,2782.9817
46.8579,2765.8565
46.8799,2774.0913
46.9019,2731.9805
46.9239,2776.6241
46.9459,2829.5402
46.9679,2926.8914
46.9899,2920.8522
47.0119,2842.202
47.0339,2831.838
47.0559,2905.1798
47.0779,3009.4458
47.0999,3085.5598
47.1219,3061.121
47.1439,3085.8673
47.1659,3091.4845
47.1879,3036.2413
47.2099,2954.8665
47.2319,2815.1157
47.2539,2842.0795
47.2759,2784.5498
47.2979,2711.285
47.3199,2732.5153
47.3419,2794.265
47.3639,2701.9085
47.3859,2694.7522
47.4079,2665.1178
47.4299,2627.6982
47.4519,2643.9323
47.4739,2662.41
47.4959,2661.3107
47.5179,2633.7923
47.5399,2635.8587
47.5619,2716.195
47.5839,2757.6426
47.6059,2749.6784
47.6279,2743.5039
47.6499,2692.6722
47.6719,2682.5283
47.6939,2715.8682
47.7159,2706.3667
47.7379,2736.7967
47.7599,2763.7207
47.7819,2700.8787
47.8039,2721.7895
47.8259,2649.5155
47.8479,2653.8486
47.8699,2647.4481
47.8919,2654.2574
47.9139,2655.6685
47.9359,2594.8891
47.9579,2614.2284
47.9799,2700.1164
48.0019,2621.1322
48.0239,2583.1731
48.0459,2685.9553
48.0679,2596.1365
48.0899,2680.9652
48.1119,2621.8255
48.1339,2589.4425
48.1559,2679.9714
48.1779,2614.0252
48.1999,2608.3128
48.2219,2628.5586
48.2439,2649.6446
48.2659,2658.9676
48.2879,2679.0256
48.3099,2556.5757
48.3319,2551.4514
48.3539,2695.4647
48.3759,2742.0749
48.3979,2644.9642
48.4199,2663.2794
48.4419,2672.6067
48.4639,2605.5809
48.4859,2684.9354
48.5079,2556.6219
48.5299,2574.0003
48.5519,2659.1804
48.5739,2515.3602
48.5959,2611.9501
48.6179,2684.6732
48.6399,2606.4084
48.6619,2684.2062
48.6839,2621.0746
48.7059,2597.4732
48.7279,2675.8455
48.7499,2739.7586
48.7719,2634.1097
48.7939,2653.115
48.8159,2659.1851
48.8379,2722.6461
48.8599,2728.4067
48.8819,2663.4564
48.9039,2705.3133
48.9259,2726.3627
48.9479,2696.2275
48.9699,2678.9165
48.9919,2675.6738
49.0139,2598.6634
49.0359,2573.4258
49.0579,2636.7665
49.0799,2583.2537
49.1019,2659.2997
49.1239,2640.2789
49.1459,2637.1236
49.1679,2574.7324
49.1899,2559.4749
49.2119,2542.1866
49.2339,2576.0773
49.2559,2639.4672
49.2779,2585.5074
49.2999,2587.2792
49.3219,2561.991
49.3439,2604.8541
49.3659,2651.7666
49.3879,2620.4219
49.4099,2643.358
49.4319,2652.5039
49.4539,2654.0325
49.4759,2711.5515
49.4979,2743.0716
49.5199,2730.3186
49.5419,2782.7545
49.5639,2916.3177
49.5859,3012.5488
49.6079,3132.1806
49.6299,3187.3234
49.6519,3173.7315
49.6739,3191.0916
49.6959,3299.4116
49.7179,3266.7075
49.7399,3154.3708
49.7619,3101.7275
49.7839,3021.5394
49.8059,2853.4132
49.8279,2764.6419
49.8499,2800.6728
49.8719,2756.5198
49.8939,2685.7048
49.9159,2634.3804
49.9379,2626.3599
49.9599,2668.544
49.9819,2637.6281
50.0039,2586.0013
50.0259,2571.1494
50.0479,2537.7727
50.0699,2514.7925
50.0919,2547.7794
50.1139,2523.7963
50.1359,2547.8148
50.1579,2541.9046
50.1799,2490.2992
50.2019,2524.2991
50.2239,2520.3751
50.2459,2508.4955
50.2679,2520.623
50.2899,2428.5709
50.3119,2535.5181
50.3339,2534.4491
50.3559,2465.8266
50.3779,2503.3065
50.3999,2428.9061
50.4219,2547.3004
50.4439,2420.208
50.4659,2425.8566
50.4879,2459.9721
50.5099,2469.2297
50.5319,2392.806
50.5539,2445.8085
50.5759,2507.1371
50.5979,2488.0394
50.6199,2498.7672
50.6419,2447.8585
50.6639,2475.7671
50.6859,2505.3177
50.7079,2515.3759
50.7299,2469.2103
50.7519,2455.07
50.7739,2514.5638
50.7959,2558.5833
50.8179,2526.7053
50.8399,2518.2042
50.8619,2393.6169
50.8839,2505.9813
50.9059,2538.4508
50.9279,2480.5948
50.9499,2521.9349
50.9719,2479.5353
50.9939,2508.79
51.0159,2597.5002
51.0379,2616.7432
51.0599,2549.9603
51.0819,2521.9717
51.1039,2506.6234
51.1259,2467.6698
51.1479,2505.0143
51.1699,2495.3774
51.1919,2413.6612
51.2139,2423.9249
51.2359,2493.8348
51.2579,2506.9156
51.2799,2500.8627
51.3019,2426.7784
51.3239,2425.6335
51.3459,2403.9672
51.3679,2395.7908
51.3899,2385.5209
51.4119,2427.674
51.4339,2427.9201
51.4559,2409.3471
51.4779,2388.4138
51.4999,2418.5135
51.5219,2412.7933
51.5439,2419.5163
51.5659,2412.2919
51.5879,2413.5015
51.6099,2442.2263
51.6319,2481.3217
51.6539,2448.0253
51.6759,2436.7881
51.6979,2394.1148
51.7199,2449.052
51.7419,2418.7412
51.7639,2443.1123
51.7859,2418.4177
51.8079,2406.0118
51.8299,2427.7789
51.8519,2503.0441
51.8739,2429.0439
51.8959,2416.8805
51.9179,2469.6767
51.9399,2366.4808
51.9619,2412.7967
51.9839,2424.5079
52.0059,2436.3039
52.0279,2500.9368
52.0499,2405.4096
52.0719,2362.8455
52.0939,2352.0885
52.1159,2349.1723
52.1379,2398.9843
52.1599,2399.009
52.1819,2434.5241
52.2039,2444.843
52.2259,2407.1682
52.2479,2421.2983
52.2699,2389.3579
52.2919,2399.1064
52.3139,2439.6544
52.3359,2341.8124
52.3579,2387.5459
52.3799,2414.604
52.4019,2387.5274
52.4239,2442.1662
52.4459,2363.4615
52.4679,2427.8009
52.4899,2429.053
52.5119,2433.7374
52.5339,2506.331
52.5559,2421.5631
52.5779,2350.1995
52.5999,2335.1077
52.6219,2376.9031
52.6439,2414.3087
52.6659,2330.6324
52.6879,2326.805
52.7099,2317.5895
52.7319,2384.8823
52.7539,2361.9559
52.7759,2376.0677
52.7979,2357.5398
52.8199,2343.6681
52.8419,2347.362
52.8639,2374.7921
52.8859,2369.5928
52.9079,2346.1897
52.9299,2357.3689
52.9519,2361.9452
52.9739,2374.1409
52.9959,2434.3084
53.0179,2469.2214
53.0399,2429.4347
53.0619,2395.4908
53.0839,2418.708
53.1059,2405.4079
53.1279,2477.7381
53.1499,2468.8726
53.1719,2440.7037
53.1939,2425.6861
53.2159,2469.5078
53.2379,2404.1114
53.2599,2381.84
53.2819,2455.7348
53.3039,2466.3209
53.3259,2462.0767
53.3479,2486.1358
53.3699,2424.1884
53.3919,2434.8306
53.4139,2469.2154
53.4359,2479.7045
53.4579,2475.7276
53.4799,2425.0086
53.5019,2443.4446
53.5239,2466.4312
53.5459,2545.4222
53.5679,2534.6724
53.5899,2678.5042
53.6119,2629.4332
53.6339,2650.6157
53.6559,2719.195
53.6779,2842.0182
53.6999,2893.5361
53.7219,2879.9862
53.7439,2827.7859
53.7659,2630.5429
53.7879,2632.8137
53.8099,2589.3567
53.8319,2671.669
53.8539,2507.3965
53.8759,2571.0844
53.8979,2451.1185
53.9199,2531.439
53.9419,2394.5987
53.9639,2376.0617
53.9859,2325.5901
54.0079,2353.4924
54.0299,2299.1455
54.0519,2303.8069
54.0739,2326.4068
54.0959,2264.0037
54.1179,2324.0008
54.1399,2283.0338
54.1619,2254.9559
54.1839,2276.5708
54.2059,2275.3305
54.2279,2311.685
54.2499,2316.4538
54.2719,2239.6948
54.2939,2275.1673
54.3159,2261.8848
54.3379,2178.0743
54.3599,2278.2857
54.3819,2283.6165
54.4039,2291.0989
54.4259,2313.9943
54.4479,2319.6766
54.4699,2262.7878
54.4919,2232.7432
54.5139,2161.1509
54.5359,2245.8202
54.5579,2223.2248
54.5799,2177.102
54.6019,2238.3484
54.6239,2278.2659
54.6459,2261
54.6679,2261
54.6899,2234.5101
54.7119,2195.1007
54.7339,2224.8204
54.7559,2223.4682
54.7779,2198.5705
54.7999,2207.9173
54.8219,2186.2713
54.8439,2231.7536
54.8659,2220.1588
54.8879,2199.8144
54.9099,2251.6561
54.9319,2216.4834
54.9539,2190.3138
54.9759,2260.527
54.9979,2286.5014
55.0199,2270.4896
55.0419,2263.4474
55.0639,2302.3277
55.0859,2354.4859
55.1079,2282.9213
55.1299,2232.0648
55.1519,2215.407
55.1739,2248.4427
55.1959,2311.0725
55.2179,2233.2571
55.2399,2243.1777
55.2619,2287.6816
55.2839,2184.0898
55.3059,2183.9972
55.3279,2213.7464
55.3499,2231.1535
55.3719,2196.9865
55.3939,2183.9911
55.4159,2207.566
55.4379,2144.9672
55.4599,2180.1993
55.4819,2166.6685
55.5039,2204.332
55.5259,2171.7491
55.5479,2252.7182
55.5699,2184.4156
55.5919,2218.7081
55.6139,2242.0699
55.6359,2221.6597
55.6579,2194.4778
55.6799,2204.9406
55.7019,2332.8912
55.7239,2173.7096
55.7459,2208.2377
55.7679,2155.1378
55.7899,2174.3388
55.8119,2088.4313
55.8339,2206.8402
55.8559,2099.3632
55.8779,2180.7896
55.8999,2172.8896
55.9219,2130.2449
55.9439,2152.9946
55.9659,2154.2142
55.9879,2125.9999
56.0099,2105.0833
56.0319,2076.4203
56.0539,2158.6547
56.0759,2148.8785
56.0979,2219.2249
56.1199,2178.1638
56.1419,2174.1335
56.1639,2159.49
56.1859,2178.3299
56.2079,2118.0853
56.2299,2147.3214
56.2519,2145.0181
56.2739,2197.1445
56.2959,2178.2576
56.3179,2170.0531
56.3399,2167.2767
56.3619,2198.0644
56.3839,2229.2518
56.4059,2183.2036
56.4279,2215.4496
56.4499,2200.1234
56.4719,2131.4439
56.4939,2186.8099
56.5159,2216.9877
56.5379,2152.9429
56.5599,2146.9174
56.5819,2127.0676
56.6039,2139.2466
56.6259,2138.4746
56.6479,2126.8099
56.6699,2110.5907
56.6919,2133.3986
56.7139,2111.1942
56.7359,2094.8129
56.7579,2130.3246
56.7799,2148.5281
56.8019,2131.0067
56.8239,2138.5469
56.8459,2128.3892
56.8679,2096.2506
56.8899,2078.6234
56.9119,2113.2421
56.9339,2048.2728
56.9559,2089.8225
56.9779,2096.0883
56.9999,2092.5885
57.0219,2093.5113
57.0439,2085.4336
57.0659,2016.1029
57.0879,2095.9966
57.1099,2108.1297
57.1319,2060.4865
57.1539,2067.18
57.1759,2086.7774
57.1979,1999.8334
57.2199,2069.352
57.2419,2117.8232
57.2639,2081.6611
57.2859,2093.8369
57.3079,2133.9736
57.3299,2080.2652
57.3519,2031.3503
57.3739,2085.4014
57.3959,2121.4121
57.4179,2094.9979
57.4399,2052.929
57.4619,1997.5406
57.4839,2006.1034
57.5059,2047.6164
57.5279,2024.2447
57.5499,2106.6128
57.5719,2137.9978
57.5939,1998.031
57.6159,2099.6282
57.6379,2075.3005
57.6599,2008.1957
57.6819,2111.7982
57.7039,2073.3821
57.7259,2080.3635
57.7479,2015.6513
57.7699,2016.4727
57.7919,2127.7537
57.8139,2041.5283
57.8359,2089.7701
57.8579,2111.5033
57.8799,2083.6178
57.9019,2065.3158
57.9239,2062.9302
57.9459,2028.5583
57.9679,2101.5183
57.9899,1996.6407
58.0119,2046.3828
58.0339,1947.5045
58.0559,1978.7456
58.0779,2033.7249
58.0999,2048.3905
58.1219,2021.3808
58.1439,2023.3349
58.1659,1997.5284
58.1879,2042.6253
58.2099,1998.1933
58.2319,1989.0227
58.2539,2027.2819
58.2759,1991.8943
58.2979,1999.3717
58.3199,2002.4086
58.3419,2043.0269
58.3639,2116.6227
58.3859,2141.4041
58.4079,2085.2434
58.4299,2047.4337
58.4519,2030.6394
58.4739,2070.4449
58.4959,2149.2318
58.5179,2179.9617
58.5399,2201.5881
58.5619,2211.7906
58.5839,2146.8304
58.6059,2125.8792
58.6279,2247.9964
58.6499,2274.0361
58.6719,2257.6647
58.6939,2349.9151
58.7159,2456.5501
58.7379,2548.9778
58.7599,2547.3862
58.7819,2535.2724
58.8039,2583.0952
58.8259,2667.6995
58.8479,2702.2321
58.8699,2817.0823
58.8919,2877.4072
58.9139,2975.5561
58.9359,2858.8621
58.9579,2926.1156
58.9799,2885.8074
59.0019,2662.2142
59.0239,2555.1103
59.0459,2559.7523
59.0679,2420.013
59.0899,2343.5189
59.1119,2314.2
59.1339,2316.6215
59.1559,2258.9319
59.1779,2051.941
59.1999,2082.3301
59.2219,2047.0087
59.2439,2024.3136
59.2659,2068.9117
59.2879,2089.3286
59.3099,2026.4251
59.3319,2088.8728
59.3539,2116.9178
59.3759,2188.4444
59.3979,2075.9631
59.4199,2164.6548
59.4419,2143.158
59.4639,2084.6502
59.4859,2128.4601
59.5079,2114.2637
59.5299,2140.5447
59.5519,2131.3687
59.5739,2123.0667
59.5959,2092.6159
59.6179,2053.6812
59.6399,2011.621
59.6619,2018.6048
59.6839,2035.6947
59.7059,2004.1036
59.7279,1919.492
59.7499,1981.1475
59.7719,1990.3688
59.7939,1982.8837
59.8159,1939.4203
59.8379,1960.1253
59.8599,2016.4433
59.8819,2008.3453
59.9039,2030.8097
59.9259,2019.8652
59.9479,2002.6607
59.9699,2008.5676
59.9919,1992.5811
60.0139,1949.7879
60.0359,2003.129
60.0579,1988.9967
60.0799,1981.847
60.1019,2014.1867
60.1239,1993.1357
60.1459,1976.7786
60.1679,1931.3758
60.1899,1891.2575
60.2119,1940.9209
60.2339,1981.6843
60.2559,1956.0171
60.2779,1926.0972
60.2999,1886.517
60.3219,1879.9362
60.3439,1899.8054
60.3659,1855.5424
60.3879,1844.246
60.4099,1855.0885
60.4319,1872.185
60.4539,1854.868
60.4759,1837.6298
60.4979,1861.3945
60.5199,1878.589
60.5419,1959.2011
60.5639,1932.42
60.5859,1881.3155
60.6079,1860.5309
60.6299,1844.0786
60.6519,1845.4066
60.6739,1789.7194
60.6959,1822.6143
60.7179,1905.4045
60.7399,1849.7046
60.7619,1840.6706
60.7839,1870.7681
60.8059,1878.5752
60.8279,1874.6465
60.8499,1864.2871
60.8719,1870.1623
60.8939,1765.7212
60.9159,1840.5476
60.9379,1854.5251
60.9599,1831.3888
60.9819,1839.5674
61.0039,1796.3936
61.0259,1880.375
61.0479,1785.6195
61.0699,2030.7069
61.0919,1813.6732
61.1139,1847.9879
61.1359,1782.3745
61.1579,1750.6258
61.1799,1831.2125
61.2019,1849.7523
61.2239,1870.5517
61.2459,1868.4952
61.2679,1800.1547
61.2899,1776.539
61.3119,1817.951
61.3339,1828.0409
61.3559,1756.6334
61.3779,1783.9321
61.3999,1782.4249
61.4219,1803.8871
61.4439,1819.6128
61.4659,1781.4072
61.4879,1813.3519
61.5099,1877.2448
61.5319,1891.8971
61.5539,1920.2111
61.5759,1862.9192
61.5979,1833.3715
61.6199,1795.6541
61.6419,1779.901
61.6639,1798.423
61.6859,1753.2487
61.7079,1776.1333
61.7299,1830.3892
61.7519,1847.4012
61.7739,1877.8688
61.7959,1830.7611
61.8179,1791.5344
61.8399,1789.3611
61.8619,1879.8644
61.8839,1881.8652
61.9059,1842.5681
61.9279,1850.3352
61.9499,1962.6467
61.9719,1941.6997
61.9939,1852.5221
62.0159,1855.6721
62.0379,1847.6125
62.0599,1822.7889
62.0819,1857.4173
62.1039,1827.055
62.1259,1793.7051
62.1479,1783.5387
62.1699,1782.7887
62.1919,1838.0889
62.2139,1795.6907
62.2359,1803.0131
62.2579,1844.4102
62.2799,1818.2225
62.3019,1813.8015
62.3239,1867.7481
62.3459,1803.1833
62.3679,1799.9741
62.3899,1790.9291
62.4119,1788.534
62.4339,1770.8013
62.4559,1810.254
62.4779,1774.6556
62.4999,1762.8048
62.5219,1847.9799
62.5439,1826.3592
62.5659,1831.4671
62.5879,1829.7301
62.6099,1755.3664
62.6319,1816.0427
62.6539,1890.1419
62.6759,1777.8809
62.6979,1781.478
62.7199,1820.1093
62.7419,1770.3586
62.7639,1738.4305
62.7859,1806.4517
62.8079,1786.5314
62.8299,1885.9081
62.8519,1778.0252
62.8739,1795.6059
62.8959,1838.583
62.9179,1822.4247
62.9399,1800.8086
62.9619,1679.4052
62.9839,1872.2297
63.0059,1787.4247
63.0279,1783.0768
63.0499,1882.3595
63.0719,1803.2634
63.0939,1787.2804
63.1159,1801.1473
63.1379,1751.3566
63.1599,1710.5786
63.1819,1790.4074
63.2039,1826.8857
63.2259,1785.7914
63.2479,1746.8372
63.2699,1704.5416
63.2919,1836.1825
63.3139,1835.7902
63.3359,1791.3316
63.3579,1799.392
63.3799,1774.9031
63.4019,1840.4839
63.4239,1846.3317
63.4459,1826.6666
63.4679,1824.6913
63.4899,1791.9976
63.5119,1766.1701
63.5339,1818.7325
63.5559,1798.3145
63.5779,1772.7875
63.5999,1779.7432
63.6219,1791.985
63.6439,1789.6375
63.6659,1844.8999
63.6879,1840.0764
63.7099,1780.9585
63.7319,1789.0254
63.7539,1820.9675
63.7759,1830.4249
63.7979,1854.1899
63.8199,1798.2988
63.8419,1791.9119
63.8639,1826.3313
63.8859,1798.8336
63.9079,1803.2922
63.9299,1834.301
63.9519,1820.9747
63.9739,1829.248
63.9959,1825.7034
64.0179,1820.5703
64.0399,1868.2334
64.0619,1827.3162
64.0839,1868.0472
64.1059,1852.2592
64.1279,1795.5676
64.1499,1784.6333
64.1719,1778.6106
64.1939,1821.8253
64.2159,1812.5672
64.2379,1884.1333
64.2599,1784.0553
64.2819,1765.4072
64.3039,1732.429
64.3259,1793.2984
64.3479,1791.2546
64.3699,1840.6729
64.3919,1801.7362
64.4139,1822.8468
64.4359,1904.1199
64.4579,1879.8484
64.4799,1909.7077
64.5019,2006.2542
64.5239,1948.508
64.5459,2008.4566
64.5679,1953.4289
64.5899,1897.514
64.6119,2003.3393
64.6339,2062.8292
64.6559,2023.0094
64.6779,2126.776
64.6999,1981.2375
64.7219,1983.794
64.7439,1902.851
64.7659,1993.6015
64.7879,1944.5961
64.8099,1896.9538
64.8319,1908.1535
64.8539,1929.1191
64.8759,1934.4099
64.8979,1818.2773
64.9199,1822.1556
64.9419,1847.3957
64.9639,1772.8721
64.9859,1855.5862
65.0079,1874.5539
65.0299,1833.4865
65.0519,1805.3059
65.0739,1839.7164
65.0959,1902.0763
65.1179,1861.8618
65.1399,1903.0543
65.1619,1887.4075
65.1839,1926.4795
65.2059,1902.8628
65.2279,1952.1459
65.2499,1900.3152
65.2719,1855.3724
65.2939,1855.3212
65.3159,1813.7315
65.3379,1790.4816
65.3599,1793.0181
65.3819,1848.6392
65.4039,1825.5296
65.4259,1796.9441
65.4479,1803.8007
65.4699,1782.0383
65.4919,1779.7169
65.5139,1788.4435
65.5359,1781.9822
65.5579,1784.8054
65.5799,1749.2242
65.6019,1723.1358
65.6239,1726.5471
65.6459,1682.5661
65.6679,1679.1389
65.6899,1732.2215
65.7119,1739.0205
65.7339,1724.5536
65.7559,1700.5396
65.7779,1672.3676
65.7999,1702.9089
65.8219,1733.2508
65.8439,1725.2118
65.8659,1712.8318
65.8879,1756.0446
65.9099,1758.2516
65.9319,1706.2219
65.9539,1680.1858
65.9759,1641.9
65.9979,1715.0193
66.0199,1701.8876
66.0419,1686.0816
66.0639,1744.698
66.0859,1702.6132
66.1079,1729.2072
66.1299,1693.0263
66.1519,1724.5666
66.1739,1727.7129
66.1959,1678.2957
66.2179,1715.9826
66.2399,1747.0405
66.2619,1759.0659
66.2839,1799.512
66.3059,1735.0242
66.3279,1760.1909
66.3499,1762
66.3719,1783.2971
66.3939,1800.6658
66.4159,1732.5085
66.4379,1767.0148
66.4599,1768.2443
66.4819,1667.5279
66.5039,1655.1346
66.5259,1726.0265
66.5479,1707.407
66.5699,1684.9213
66.5919,1683.4542
66.6139,1681.0975
66.6359,1704.6493
66.6579,1675.2929
66.6799,1656.5858
66.7019,1693.1896
66.7239,1680.8941
66.7459,1712.7253
66.7679,1661.2215
66.7899,1688.8737
66.8119,1642.1096
66.8339,1695.7274
66.8559,1667.8152
66.8779,1688.776
66.8999,1701.8483
66.9219,1677.3896
66.9439,1687.2784
66.9659,1637.598
66.9879,1677.6636
67.0099,1719.3449
67.0319,1670.099
67.0539,1631.2833
67.0759,1657.8158
67.0979,1690.7258
67.1199,1662.2477
67.1419,1666.7
67.1639,1723.8421
67.1859,1683.9462
67.2079,1678.8402
67.2299,1647.2382
67.2519,1692.6055
67.2739,1686.8492
67.2959,1667.0125
67.3179,1668.1031
67.3399,1622.9776
67.3619,1653.4106
67.3839,1701.5988
67.4059,1695.4543
67.4279,1640.8722
67.4499,1637.3514
67.4719,1672.2434
67.4939,1661.7226
67.5159,1637.4276
67.5379,1667.6464
67.5599,1687.5776
67.5819,1616.73
67.6039,1628.2261
67.6259,1684.7574
67.6479,1614.2029
67.6699,1607.9678
67.6919,1661.0976
67.7139,1692.7917
67.7359,1670.5263
67.7579,1689.6954
67.7799,1703.7734
67.8019,1643.6426
67.8239,1653.8325
67.8459,1647.7521
67.8679,1630.3347
67.8899,1668.6227
67.9119,1615.0399
67.9339,1630.5843
67.9559,1611.2629
67.9779,1600.0776
67.9999,1635.8586
68.0219,1562.6908
68.0439,1663.0646
68.0659,1649.3951
68.0879,1604.3695
68.1099,1606.6343
68.1319,1610.8053
68.1539,1567.6369
68.1759,1734.8333
68.1979,1617.4507
68.2199,1628.0338
68.2419,1694.2736
68.2639,1562.8057
68.2859,1631.9163
68.3079,1606.7314
68.3299,1656.0263
68.3519,1610.6288
68.3739,1601.8464
68.3959,1568.5743
68.4179,1651.7771
68.4399,1552.7874
68.4619,1600.1858
68.4839,1598.9957
68.5059,1625.8467
68.5279,1640.8228
68.5499,1616.7395
68.5719,1614.6768
68.5939,1607.0328
68.6159,1637.8264
68.6379,1569.5951
68.6599,1617.0107
68.6819,1657.2073
68.7039,1639.5852
68.7259,1667.0798
68.7479,1646.5873
68.7699,1570.6964
68.7919,1603.1194
68.8139,1590.3529
68.8359,1554.598
68.8579,1541.6258
68.8799,1599.8
68.9019,1628.2205
68.9239,1646.0352
68.9459,1639.2441
68.9679,1660.0713
68.9899,1674.9501
69.0119,1680.9521
69.0339,1633.3262
69.0559,1589.5706
69.0779,1560.4836
69.0999,1587.8633
69.1219,1621.4335
69.1439,1659.9882
69.1659,1660.679
69.1879,1600.8066
69.2099,1589.1967
69.2319,1602.3565
69.2539,1581.4039
69.2759,1560.8191
69.2979,1586.5214
69.3199,1583.7034
69.3419,1582.2921
69.3639,1557.658
69.3859,1601.2807
69.4079,1595.4756
69.4299,1571.2645
69.4519,1599.307
69.4739,1638.2391
69.4959,1627.5987
69.5179,1610.292
69.5399,1584.8612
69.5619,1559.7442
69.5839,1629.4917
69.6059,1588.6888
69.6279,1595.9751
69.6499,1511.0672
69.6719,1512.3512
69.6939,1578.9758
69.7159,1594.5089
69.7379,1574.6341
69.7599,1603.7131
69.7819,1554.864
69.8039,1563.8236
69.8259,1539.0677
69.8479,1586.962
69.8699,1572.6312
69.8919,1542.0269
69.9139,1550.416
69.9359,1595.1232
69.9579,1616.4298
69.9799,1577.6487
70.0019,1674.6151
70.0239,1496.1505
70.0459,1515.8176
70.0679,1604.7674
70.0899,1681.3406
70.1119,1583.5177
70.1339,1592.768
70.1559,1608.8298
70.1779,1666.2591
70.1999,1595.3074
70.2219,1625.1417
70.2439,1636.2741
70.2659,1609.3069
70.2879,1639.2081
70.3099,1659.4778
70.3319,1647.3609
70.3539,1637.629
70.3759,1589.795
70.3979,1597.2578
70.4199,1647.205
70.4419,1721.773
70.4639,1736.3912
70.4859,1727.9255
70.5079,1739.0439
70.5299,1680.104
70.5519,1655.09
70.5739,1687.0891
70.5959,1739.0286
70.6179,1697.7424
70.6399,1734.9636
70.6619,1817.3603
70.6839,1860.4749
70.7059,1883.3721
70.7279,1954.2973
70.7499,1986.9302
70.7719,2002.7554
70.7939,2041.5951
70.8159,2126.1754
70.8379,2214.0207
70.8599,2271.8703
70.8819,2337.2666
70.9039,2418.0008
70.9259,2450.5778
70.9479,2344.2298
70.9699,2218.7221
70.9919,2097.4521
71.0139,2008.8738
71.0359,1952.0174
71.0579,1977.6416
71.0799,1996.4433
71.1019,1958.5219
71.1239,1939.1313
71.1459,1897.982
71.1679,1758.4503
71.1899,1619.1242
71.2119,1653.9288
71.2339,1661.2564
71.2559,1565.0972
71.2779,1594.9327
71.2999,1586.659
71.3219,1562.7305
71.3439,1570.1874
71.3659,1559.5958
71.3879,1584.2755
71.4099,1604.7405
71.4319,1592.1002
71.4539,1553.2869
71.4759,1555.6544
71.4979,1575.4691
71.5199,1569.7143
71.5419,1533.7422
71.5639,1654.8356
71.5859,1591.1833
71.6079,1570.1735
71.6299,1606.13
71.6519,1567.7765
71.6739,1531.4433
71.6959,1608.1686
71.7179,1618.7286
71.7399,1631.5719
71.7619,1541.8992
71.7839,1529.0919
71.8059,1555.0197
71.8279,1560.5843
71.8499,1594.4599
71.8719,1542.0816
71.8939,1542.0352
71.9159,1509.2888
71.9379,1541.9223
71.9599,1550.0876
71.9819,1627.9894
72.0039,1522.8711
72.0259,1643.7485
72.0479,1529.3134
72.0699,1552.5171
72.0919,1548.5536
72.1139,1613.7429
72.1359,1557.5451
72.1579,1592.3684
72.1799,1570.0113
72.2019,1640.172
72.2239,1612.7519
72.2459,1548.7675
72.2679,1500.5513
72.2899,1554.3901
72.3119,1615.0372
72.3339,1539.2774
72.3559,1567.3822
72.3779,1604.7641
72.3999,1596.8226
72.4219,1551.7847
72.4439,1555.5585
72.4659,1556.7267
72.4879,1550.2963
72.5099,1550.6571
72.5319,1570.9423
72.5539,1573.9826
72.5759,1576.1231
72.5979,1551.6963
72.6199,1556.3303
72.6419,1529.8631
72.6639,1534.964
72.6859,1572.947
72.7079,1593.7283
72.7299,1590.3145
72.7519,1610.7393
72.7739,1599.4204
72.7959,1574.6978
72.8179,1545.2857
72.8399,1549.1522
72.8619,1587.8477
72.8839,1554.3536
72.9059,1519.8151
72.9279,1557.6316
72.9499,1525.4095
72.9719,1516.9378
72.9939,1552.3679
73.0159,1597.3174
73.0379,1543.7762
73.0599,1551.7491
73.0819,1578.0355
73.1039,1569.6051
73.1259,1596.1389
73.1479,1597.202
73.1699,1548.8069
73.1919,1590.2575
73.2139,1609.9528
73.2359,1617.4229
73.2579,1622.2606
73.2799,1581.628
73.3019,1638.499
73.3239,1574.3181
73.3459,1561.8643
73.3679,1541.8381
73.3899,1580.778
73.4119,1564.3715
73.4339,1585.7504
73.4559,1580.5939
73.4779,1563.1149
73.4999,1620.9217
73.5219,1582.6064
73.5439,1593.6741
73.5659,1594.9872
73.5879,1616.9893
73.6099,1561.4402
73.6319,1681.494
73.6539,1661.0728
73.6759,1656.8179
73.6979,1542.1579
73.7199,1642.2015
73.7419,1696.7928
73.7639,1576.6086
73.7859,1568.8149
73.8079,1549.8134
73.8299,1649.8031
73.8519,1617.7914
73.8739,1657.106
73.8959,1617.5921
73.9179,1588.7683
73.9399,1637.2728
73.9619,1598.4438
73.9839,1535.4904
74.0059,1643.9148
74.0279,1660.8611
74.0499,1559.4237
74.0719,1561.1772
74.0939,1577.2515
74.1159,1560.0065
74.1379,1568.3185
74.1599,1568.6152
74.1819,1608.2078
74.2039,1588.7969
74.2259,1484.9501
74.2479,1517.5237
74.2699,1531.5664
74.2919,1553.1418
74.3139,1556.3645
74.3359,1545.279
74.3579,1580.4613
74.3799,1585.9502
74.4019,1563.3686
74.4239,1551.6003
74.4459,1516.0006
74.4679,1493.7347
74.4899,1504.469
74.5119,1505.1574
74.5339,1507.8879
74.5559,1500.5968
74.5779,1523.078
74.5999,1563.0769
74.6219,1486.3806
74.6439,1493.0961
74.6659,1571.0799
74.6879,1553.3841
74.7099,1542.9008
74.7319,1536.5884
74.7539,1492.5474
74.7759,1501.5189
74.7979,1490.3302
74.8199,1508.9516
74.8419,1494.9958
74.8639,1534.2925
74.8859,1550.6519
74.9079,1535.7344
74.9299,1496.5337
74.9519,1472.0535
74.9739,1440.9152
74.9959,1480.1685
75.0179,1527.3326
75.0399,1519.7855
75.0619,1526.6992
75.0839,1488.07
75.1059,1507.1231
75.1279,1462.9864
75.1499,1483.7819
75.1719,1415.4735
75.1939,1500.1599
75.2159,1508.2728
75.2379,1548.5391
75.2599,1444.6321
75.2819,1531.5925
75.3039,1534.1254
75.3259,1536.9115
75.3479,1544.8624
75.3699,1458.4272
75.3919,1603.9114
75.4139,1591.9213
75.4359,1587.0411
75.4579,1558.6638
75.4799,1569.8335
75.5019,1522.9887
75.5239,1600.0248
75.5459,1555.2803
75.5679,1549.1204
75.5899,1486.39
75.6119,1574.4398
75.6339,1551.2717
75.6559,1582.9199
75.6779,1528.7015
75.6999,1595.4344
75.7219,1613.0996
75.7439,1537.8544
75.7659,1575.2366
75.7879,1546.3751
75.8099,1585.9681
75.8319,1549.5477
75.8539,1621.6549
75.8759,1638.4446
75.8979,1635.1528
75.9199,1579.6994
75.9419,1616.2371
75.9639,1623.1724
75.9859,1592.4482
76.0079,1602.4499
76.0299,1664.1809
76.0519,1611.7293
76.0739,1536.9913
76.0959,1558.8187
76.1179,1543.6131
76.1399,1544.9298
76.1619,1552.3041
76.1839,1528.7853
76.2059,1558.7332
76.2279,1514.6645
76.2499,1474.2298
76.2719,1475.4423
76.2939,1501.4208
76.3159,1494.3348
76.3379,1517.7948
76.3599,1550.8674
76.3819,1528.1737
76.4039,1488.5352
76.4259,1457.693
76.4479,1441.6106
76.4699,1508.8896
76.4919,1526.2569
76.5139,1532.1978
76.5359,1446.7297
76.5579,1476.6684
76.5799,1526.0399
76.6019,1511.9153
76.6239,1508.1741
76.6459,1494.4246
76.6679,1510.3281
76.6899,1505.8141
76.7119,1523.3453
76.7339,1489.3576
76.7559,1523.7044
76.7779,1546.5989
76.7999,1456.1011
76.8219,1501.3417
76.8439,1492.6237
76.8659,1469.5515
76.8879,1485.393
76.9099,1489.8555
76.9319,1398.8858
76.9539,1450.1234
76.9759,1443.8303
76.9979,1486.3267
77.0199,1372.7175
77.0419,1477.222
77.0639,1445.5155
77.0859,1469.7062
77.1079,1431.3906
77.1299,1470.1133
77.1519,1497.748
77.1739,1414.1744
77.1959,1473.4574
77.2179,1502.8072
77.2399,1494.2475
77.2619,1455.8569
77.2839,1526.3865
77.3059,1533.0738
77.3279,1543.5972
77.3499,1522.3424
77.3719,1550.1828
77.3939,1528.8256
77.4159,1486.7368
77.4379,1536.354
77.4599,1546.2784
77.4819,1544.3476
77.5039,1490.8647
77.5259,1523.8275
77.5479,1476.7476
77.5699,1502.0145
77.5919,1470.8581
77.6139,1491.7561
77.6359,1512.2793
77.6579,1546.8301
77.6799,1454.5717
77.7019,1468.2806
77.7239,1493.7986
77.7459,1482.8992
77.7679,1515.9334
77.7899,1473.1571
77.8119,1449.7188
77.8339,1449.1416
77.8559,1459.4392
77.8779,1474.2634
77.8999,1446.8405
77.9219,1430.417
77.9439,1459.3257
77.9659,1479.3274
77.9879,1483.3236
78.0099,1490.1199
78.0319,1475.46
78.0539,1484.7515
78.0759,1492.2864
78.0979,1499.8439
78.1199,1508.7762
78.1419,1449.0614
78.1639,1456.3766
78.1859,1501.2518
78.2079,1493.226
78.2299,1483.4071
78.2519,1472.1061
78.2739,1476.7327
78.2959,1461.957
78.3179,1454.1367
78.3399,1461.5807
78.3619,1445.9998
78.3839,1451.2582
78.4059,1481.5027
78.4279,1528.5844
78.4499,1494.6072
78.4719,1455.3405
78.4939,1446.5192
78.5159,1516.7548
78.5379,1506.3399
78.5599,1486.6725
78.5819,1412.1479
78.6039,1445.1218
78.6259,1474.2833
78.6479,1480.4794
78.6699,1499.4524
78.6919,1425.5555
78.7139,1437.8999
78.7359,1473.5223
78.7579,1447.811
78.7799,1437.6986
78.8019,1414.1877
78.8239,1470.2615
78.8459,1467.5034
78.8679,1438.519
78.8899,1396.6104
78.9119,1438.8277
78.9339,1519.8855
78.9559,1424.1425
78.9779,1507.7836
78.9999,1486.5207
79.0219,1425.3454
79.0439,1463.2401
79.0659,1483.3211
79.0879,1411.301
79.1099,1425.0401
79.1319,1394.356
79.1539,1405.3627
79.1759,1395.6433
79.1979,1420.6627
79.2199,1412
79.2419,1412.4749
79.2639,1424.2127
79.2859,1451.8077
79.3079,1383.1979
79.3299,1403.0989
79.3519,1373.2956
79.3739,1445.3252
79.3959,1424.9055
79.4179,1464.3273
79.4399,1435.3184
79.4619,1401.9694
79.4839,1372.5529
79.5059,1363.9601
79.5279,1396.5027
79.5499,1405.0566
79.5719,1444.355
79.5939,1391.5456
79.6159,1385.7125
79.6379,1415.3208
79.6599,1455.7146
79.6819,1454.7725
79.7039,1439.4899
79.7259,1435.7046
79.7479,1400.6461
79.7699,1396.2939
79.7919,1396.3118
79.8139,1423.248
79.8359,1469.4301
79.8579,1465.8373
79.8799,1451.0164
79.9019,1453.2427
79.9239,1436.764
79.9459,1445.0326
79.9679,1448.9247
79.9899,1447.3048
