Pos. [°2?],Intensity [Counts]
7.5439,4942.3231
7.5659,5147.761
7.5879,5069.6824
7.6099,5032.6549
7.6319,5075.3584
7.6539,5076.9607
7.6759,5030.9056
7.6979,4975.9636
7.7199,5056.2055
7.7419,5075.938
7.7639,4956.937
7.7859,4932.6412
7.8079,5094.3967
7.8299,4970.8938
7.8519,5008.4002
7.8739,4899.4071
7.8959,4880.0103
7.9179,4910.6785
7.9399,4880.6327
7.9619,4850.2704
7.9839,4831.4331
8.0059,4830.6018
8.0279,4783.0383
8.0499,4692.472
8.0719,4712.6874
8.0939,4765.8682
8.1159,4718.0615
8.1379,4725.5929
8.1599,4592.0476
8.1819,4547.9303
8.2039,4656.9439
8.2259,4573.8574
8.2479,4592.1151
8.2699,4639.3657
8.2919,4682.7449
8.3139,4754.0206
8.3359,4688.2212
8.3579,4632.3215
8.3799,4651.4597
8.4019,4607.82
8.4239,4503.6588
8.4459,4473.9027
8.4679,4523.0236
8.4899,4439.3303
8.5119,4403.2734
8.5339,4375.1239
8.5559,4419.383
8.5779,4390.4906
8.5999,4482.0546
8.6219,4461.3726
8.6439,4448.6244
8.6659,4395.525
8.6879,4344.8456
8.7099,4380.1918
8.7319,4434.8053
8.7539,4413.5555
8.7759,4372.3972
8.7979,4289.3805
8.8199,4300.3274
8.8419,4287.9803
8.8639,4295.7493
8.8859,4243.5024
8.9079,4312.6072
8.9299,4271.5575
8.9519,4145.8431
8.9739,4253.4937
8.9959,4225.9159
9.0179,4127.6224
9.0399,4209.0684
9.0619,4140.9115
9.0839,4068.6878
9.1059,4042.6136
9.1279,4101.2036
9.1499,4179.9233
9.1719,4094.1406
9.1939,4024.3806
9.2159,4243.8058
9.2379,4150.0983
9.2599,3997.5074
9.2819,4053.8919
9.3039,4076.5541
9.3259,4058.6637
9.3479,4027.6809
9.3699,3961.8761
9.3919,4035.1475
9.4139,4058.3766
9.4359,4092.1971
9.4579,3974.8141
9.4799,3932.8481
9.5019,3893.173
9.5239,3881.5885
9.5459,3957.5772
9.5679,3963.4179
9.5899,3976.9675
9.6119,3879.971
9.6339,3902.1917
9.6559,3900.2817
9.6779,3873.3638
9.6999,3806.6937
9.7219,3813.3274
9.7439,3813.118
9.7659,3779.9705
9.7879,3803.593
9.8099,3831.6126
9.8319,3794.6794
9.8539,3856.2272
9.8759,3921.3008
9.8979,3843.2419
9.9199,3827.4336
9.9419,3828.9095
9.9639,3819.1008
9.9859,3831.1092
10.0079,3859.6972
10.0299,3835.5978
10.0519,3784.3908
10.0739,3802.0669
10.0959,3841.2753
10.1179,3827.1062
10.1399,3830.8761
10.1619,3979.0709
10.1839,4145.59
10.2059,4244.2419
10.2279,4274.5885
10.2499,4371.6255
10.2719,4493.8309
10.2939,4466.4611
10.3159,4326.9291
10.3379,4153.6961
10.3599,3970.4704
10.3819,3793.4689
10.4039,3740
10.4259,3754.9499
10.4479,3682.7876
10.4699,3622.8043
10.4919,3581.3004
10.5139,3583.177
10.5359,3520.4916
10.5579,3472.7168
10.5799,3503.3009
10.6019,3539.7375
10.6239,3489.2463
10.6459,3434.4247
10.6679,3371.7856
10.6899,3417.001
10.7119,3392.8761
10.7339,3433.9666
10.7559,3309.1454
10.7779,3331.2508
10.7999,3418.797
10.8219,3411.0698
10.8439,3394.8731
10.8659,3470.6175
10.8879,3398.3392
10.9099,3406.8053
10.9319,3320.4705
10.9539,3376.2409
10.9759,3410.1755
10.9979,3371.0522
11.0199,3459.7054
11.0419,3342.0944
11.0639,3314.237
11.0859,3369.6617
11.1079,3341.8849
11.1299,3322.8987
11.1519,3255.645
11.1739,3275.0089
11.1959,3326.6888
11.2179,3344.348
11.2399,3277.3333
11.2619,3254.5802
11.2839,3335.0388
11.3059,3257.6814
11.3279,3194.6333
11.3499,3238.3186
11.3719,3272.7876
11.3939,3247.7257
11.4159,3247.0949
11.4379,3252.0767
11.4599,3225.3437
11.4819,3232.9813
11.5039,3228.5133
11.5259,3230.7355
11.5479,3201.3043
11.5699,3146.82
11.5919,3105.4739
11.6139,3085.532
11.6359,3167.652
11.6579,3197.1759
11.6799,3169.3737
11.7019,3219.9823
11.7239,3117.0825
11.7459,3056.183
11.7679,3097.8422
11.7899,3085.1613
11.8119,3119.2291
11.8339,3090.171
11.8559,3063.1598
11.8779,3137.9873
11.8999,3157.584
11.9219,3149.9538
11.9439,3160.6799
11.9659,3119.0796
11.9879,3130.2577
12.0099,3139.5132
12.0319,3073.8318
12.0539,3097.5507
12.0759,3114.2556
12.0979,3127.9027
12.1199,3165.3574
12.1419,3201.471
12.1639,3237.5841
12.1859,3185.0432
12.2079,3192.3737
12.2299,3117.0294
12.2519,3139.1003
12.2739,3096.7305
12.2959,3109.8053
12.3179,3056.41
12.3399,3020.5944
12.3619,3059.6431
12.3839,3023.4577
12.4059,3094.6274
12.4279,3043.2477
12.4499,3103.1554
12.4719,3035.7782
12.4939,3048.885
12.5159,3056.5182
12.5379,3003.4896
12.5599,2928.2861
12.5819,3081.3738
12.6039,3138.7208
12.6259,3056.3687
12.6479,2936.6046
12.6699,3077.769
12.6919,3006.7256
12.7139,2982.2261
12.7359,3055.7984
12.7579,2975.0768
12.7799,3045.6479
12.8019,2996.8427
12.8239,2995.3747
12.8459,3038.233
12.8679,3034.6205
12.8899,3119.2123
12.9119,3033.2551
12.9339,2983.9223
12.9559,2993.8599
12.9779,2965.709
12.9999,3015.7994
13.0219,3036.8703
13.0439,3077.4665
13.0659,3016.3304
13.0879,3055.8628
13.1099,2997.943
13.1319,3030.4628
13.1539,3131.2772
13.1759,3016.2202
13.1979,2956.7405
13.2199,3057.9985
13.2419,3036.3126
13.2639,3012.708
13.2859,3025.6106
13.3079,3000.2542
13.3299,3002.9941
13.3519,3017.3702
13.3739,3029.7482
13.3959,2997.0526
13.4179,3026.2567
13.4399,3022.734
13.4619,2979.4887
13.4839,3015.4248
13.5059,3094.5055
13.5279,3151.2291
13.5499,3113.7344
13.5719,3031.3593
13.5939,3022.1269
13.6159,3114.1978
13.6379,3186.0384
13.6599,3161.5098
13.6819,3159.8938
13.7039,3191.8653
13.7259,3280.4446
13.7479,3264.5014
13.7699,3180.2143
13.7919,3266.0827
13.8139,3309.1829
13.8359,3308.8933
13.8579,3413.1368
13.8799,3422.4468
13.9019,3375.4218
13.9239,3463.2602
13.9459,3487.8967
13.9679,3601.7179
13.9899,3557.464
14.0119,3603.7022
14.0339,3683.3855
14.0559,3809.5085
14.0779,3844.2389
14.0999,3976.7883
14.1219,4123.6442
14.1439,4215.5487
14.1659,4246.4248
14.1879,4418.4294
14.2099,4553.6373
14.2319,4677.9431
14.2539,4761.7906
14.2759,4876.5399
14.2979,5012.0168
14.3199,5146.1388
14.3419,4999.9526
14.3639,5008.4479
14.3859,4853.871
14.4079,4708.0058
14.4299,4486.4531
14.4519,4213.5642
14.4739,3920.6989
14.4959,3711.9084
14.5179,3642.1317
14.5399,3435.4027
14.5619,3471.9193
14.5839,3371.5976
14.6059,3085.0856
14.6279,3105.8102
14.6499,3077.4532
14.6719,2953.7478
14.6939,2955.6254
14.7159,2989.2212
14.7379,2901.6224
14.7599,2838.407
14.7819,2777.4553
14.8039,2793.1018
14.8259,2814.1592
14.8479,2736.7424
14.8699,2745.7345
14.8919,2713.2144
14.9139,2755.5908
14.9359,2654.0634
14.9579,2636.3667
14.9799,2629.4282
15.0019,2655.8319
15.0239,2628.8558
15.0459,2564.3856
15.0679,2664.6328
15.0899,2647.0638
15.1119,2592.4534
15.1339,2622.0236
15.1559,2594.3918
15.1779,2586.7335
15.1999,2607.711
15.2219,2606.7354
15.2439,2572.3565
15.2659,2612.9735
15.2879,2618.584
15.3099,2594.0354
15.3319,2588.0944
15.3539,2575.3726
15.3759,2519.5127
15.3979,2405.4246
15.4199,2384.6948
15.4419,2481.826
15.4639,2455.3892
15.4859,2459.4328
15.5079,2488.2389
15.5299,2454.4218
15.5519,2462.5443
15.5739,2502.8122
15.5959,2443.1606
15.6179,2407.765
15.6399,2368.3849
15.6619,2370.4956
15.6839,2446.802
15.7059,2487.9263
15.7279,2488.9557
15.7499,2513.0807
15.7719,2585.7803
15.7939,2609.8673
15.8159,2623.4641
15.8379,2672.3944
15.8599,2665.5663
15.8819,2635.1976
15.9039,2558.4866
15.9259,2571.7405
15.9479,2529.995
15.9699,2464.3991
15.9919,2539.0827
16.0139,2581.3471
16.0359,2475.1587
16.0579,2451.5664
16.0799,2606.8551
16.1019,2676.7985
16.1239,2624.8067
16.1459,2661.5635
16.1679,2579.5328
16.1899,2420.0588
16.2119,2425.0556
16.2339,2314.0618
16.2559,2314.8142
16.2779,2381.7297
16.2999,2296.556
16.3219,2378.8112
16.3439,2347.4548
16.3659,2372.4877
16.3879,2385.8613
16.4099,2333.7049
16.4319,2263.5699
16.4539,2308.1415
16.4759,2263.7681
16.4979,2369.1602
16.5199,2274.9513
16.5419,2264.295
16.5639,2254.325
16.5859,2303.0059
16.6079,2291.8343
16.6299,2281.7453
16.6519,2230.438
16.6739,2216.2813
16.6959,2295.1912
16.7179,2245.2831
16.7399,2220.6752
16.7619,2298.0038
16.7839,2201.8245
16.8059,2251.3413
16.8279,2284.3957
16.8499,2256.3452
16.8719,2257.5505
16.8939,2188.8348
16.9159,2214.8216
16.9379,2241.8506
16.9599,2241.7532
16.9819,2220.7581
17.0039,2232.9239
17.0259,2272.8024
17.0479,2244.6636
17.0699,2222.2567
17.0919,2243
17.1139,2299.4957
17.1359,2309.1129
17.1579,2194.0687
17.1799,2155.646
17.2019,2167.0049
17.2239,2145.6066
17.2459,2178.2125
17.2679,2165.0766
17.2899,2163.9372
17.3119,2184.6401
17.3339,2177.8545
17.3559,2235.0207
17.3779,2245.5693
17.3999,2233.8653
17.4219,2202.2546
17.4439,2203.7788
17.4659,2225.3855
17.4879,2210.2802
17.5099,2278.3453
17.5319,2237.2167
17.5539,2198.6116
17.5759,2153.4911
17.5979,2135
17.6199,2186.1751
17.6419,2233.2478
17.6639,2162.1449
17.6859,2151.3589
17.7079,2156.7802
17.7299,2140.3569
17.7519,2174.6313
17.7739,2134.1563
17.7959,2188.5227
17.8179,2207.8918
17.8399,2148.3672
17.8619,2068.698
17.8839,2205.599
17.9059,2184.1297
17.9279,2158.2276
17.9499,2107.4817
17.9719,2063.1076
17.9939,2121.1014
18.0159,2165.9494
18.0379,2114.9468
18.0599,2181.3826
18.0819,2148.3785
18.1039,2132.0089
18.1259,2137.4493
18.1479,2099.772
18.1699,2160.7078
18.1919,2035.2416
18.2139,2167.0983
18.2359,2107.7212
18.2579,2099.7887
18.2799,2172.9158
18.3019,2100.3363
18.3239,2099.8903
18.3459,2086.474
18.3679,2132.2536
18.3899,2102.3521
18.4119,2178.9091
18.4339,2196.7346
18.4559,2190.8163
18.4779,2021.8899
18.4999,2073.6992
18.5219,2126.175
18.5439,2119.6135
18.5659,2083.587
18.5879,2057.9498
18.6099,2021.295
18.6319,2023.5222
18.6539,2028.8112
18.6759,2016.2734
18.6979,2068.6668
18.7199,2136.9125
18.7419,2136.3992
18.7639,2060.9113
18.7859,2001.1574
18.8079,2033.9459
18.8299,2041.4249
18.8519,2080.355
18.8739,2090.6116
18.8959,2076.6902
18.9179,2063.2311
18.9399,2064.9439
18.9619,2069.1947
18.9839,2035.2776
19.0059,1965.8702
19.0279,2032.6905
19.0499,2076.8505
19.0719,2015.2094
19.0939,2026.593
19.1159,2028.8224
19.1379,2013.6873
19.1599,2072.0473
19.1819,2062.7197
19.2039,2034.2321
19.2259,2027.4602
19.2479,2046.062
19.2699,2048.5536
19.2919,2033.6873
19.3139,2006.643
19.3359,2009.7955
19.3579,2058.826
19.3799,2039.8534
19.4019,2011.1937
19.4239,2051.0753
19.4459,2090.2881
19.4679,2019.3573
19.4899,2015.9469
19.5119,2039.3383
19.5339,2085.6205
19.5559,2069.9941
19.5779,2035.1258
19.5999,1953.6459
19.6219,2034.1506
19.6439,1952.7491
19.6659,2041.8969
19.6879,2021.5427
19.7099,2000.823
19.7319,1988.0678
19.7539,2036.8585
19.7759,2008.2541
19.7979,2004.1042
19.8199,1864.7741
19.8419,2064.191
19.8639,1940.0116
19.8859,2004.8024
19.9079,2034.29
19.9299,1959.9735
19.9519,2002.8805
19.9739,1972.294
19.9959,2004.2071
20.0179,2088.6372
20.0399,2096.4184
20.0619,2094.4829
20.0839,2125.0485
20.1059,2027.0797
20.1279,2038.3063
20.1499,2049.1592
20.1719,1996.2921
20.1939,2058.353
20.2159,2046.6769
20.2379,1972.9106
20.2599,2035.5439
20.2819,2115.8819
20.3039,2038.0874
20.3259,2010.5438
20.3479,2059.7655
20.3699,2070.2911
20.3919,2076.7747
20.4139,2074.1329
20.4359,2159.8702
20.4579,2146.2822
20.4799,2107.401
20.5019,2027.0493
20.5239,2112.4514
20.5459,2156.8053
20.5679,2179.8433
20.5899,2255.6196
20.6119,2292.5177
20.6339,2293.5025
20.6559,2304.3377
20.6779,2297.3835
20.6999,2283.5653
20.7219,2202.6223
20.7439,2152.6652
20.7659,2120.6558
20.7879,2105.0276
20.8099,2013.7785
20.8319,1936.5994
20.8539,1995.7258
20.8759,2080.714
20.8979,2067.8809
20.9199,2043.9661
20.9419,2099.6786
20.9639,2095.4385
20.9859,2096.8526
21.0079,2130.7169
21.0299,2059.932
21.0519,2031.1574
21.0739,2068.0915
21.0959,2112.2877
21.1179,2094.1032
21.1399,2083.1858
21.1619,2101.3284
21.1839,2025.6665
21.2059,2048.3541
21.2279,2052.3171
21.2499,2045.4818
21.2719,1997.9453
21.2939,1952.6528
21.3159,2107.1738
21.3379,2061.7078
21.3599,2100.9003
21.3819,2068.1936
21.4039,2025.1946
21.4259,1997.5644
21.4479,1987.912
21.4699,1962.3038
21.4919,1992.089
21.5139,1938.8849
21.5359,1996.4028
21.5579,1970.3402
21.5799,1972.7173
21.6019,1992.1151
21.6239,1963.9587
21.6459,1993.3904
21.6679,1946.3539
21.6899,2018.0738
21.7119,2033.4819
21.7339,2058.876
21.7559,1990.797
21.7779,2035.3531
21.7999,2089.7521
21.8219,2029.2134
21.8439,2019.1814
21.8659,2019.6727
21.8879,2093.8446
21.9099,2098.1663
21.9319,2172.5869
21.9539,2090.0404
21.9759,2147.4473
21.9979,2087.4955
22.0199,2056.9033
22.0419,2143.9134
22.0639,2101.7109
22.0859,2101.8938
22.1079,2070.5083
22.1299,2050.0384
22.1519,2072.4291
22.1739,2012.5093
22.1959,1985.916
22.2179,2034.6914
22.2399,2069.2147
22.2619,2031.0385
22.2839,2059.467
22.3059,2060.0955
22.3279,2105.1754
22.3499,2057.1209
22.3719,2059.3859
22.3939,2079.1151
22.4159,2121.9578
22.4379,2149.6106
22.4599,2151.733
22.4819,2182.6078
22.5039,2205.4994
22.5259,2182.3835
22.5479,2217.2449
22.5699,2270.3039
22.5919,2242.5175
22.6139,2243.7622
22.6359,2319.0045
22.6579,2305.6194
22.6799,2342.2878
22.7019,2371.1877
22.7239,2421.5813
22.7459,2473.5693
22.7679,2553.1118
22.7899,2580.6991
22.8119,2632.7032
22.8339,2662.6273
22.8559,2725.6034
22.8779,2883.3602
22.8999,2994.3885
22.9219,3041.5694
22.9439,3169.1143
22.9659,3212.2576
22.9879,3377.1906
23.0099,3451.6205
23.0319,3590.3316
23.0539,3680.7848
23.0759,3779.1595
23.0979,3863.949
23.1199,3940.2877
23.1419,3875.0195
23.1639,3957.2386
23.1859,3823.3094
23.2079,3692.4929
23.2299,3681.9223
23.2519,3590.8538
23.2739,3618.9342
23.2959,3553.6311
23.3179,3494.7905
23.3399,3420.494
23.3619,3559.6119
23.3839,3459.5972
23.4059,3383.6557
23.4279,3359.53
23.4499,3386.6697
23.4719,3312.0212
23.4939,3355.1406
23.5159,3368.2568
23.5379,3454.2811
23.5599,3408.0137
23.5819,3359.2829
23.6039,3202.0483
23.6259,3269.0669
23.6479,3319.9057
23.6699,3392.5556
23.6919,3385.7703
23.7139,3305.0501
23.7359,3310.5429
23.7579,3388.8605
23.7799,3450.8274
23.8019,3434.1021
23.8239,3357.0997
23.8459,3337.7965
23.8679,3402.486
23.8899,3475.7903
23.9119,3363.1136
23.9339,3391.7758
23.9559,3418.3807
23.9779,3532.1419
23.9999,3670.5468
24.0219,3765.3985
24.0439,3984.4179
24.0659,4246.8174
24.0879,4468.8785
24.1099,4890.9333
24.1319,5619.1336
24.1539,6626.8665
24.1759,8342.1145
24.1979,11394.9507
24.2199,15513.5286
24.2419,19263.0289
24.2639,20575.8935
24.2859,18289.2376
24.3079,14324.2644
24.3299,10395.9595
24.3519,7115.0478
24.3739,4950.7852
24.3959,4094.8176
24.4179,3846.0754
24.4399,3809.4235
24.4619,3808.1592
24.4839,3769.1706
24.5059,3682.0086
24.5279,3548.5539
24.5499,3537.5763
24.5719,3487.9644
24.5939,3503.1064
24.6159,3603.3232
24.6379,3555.5544
24.6599,3550.8526
24.6819,3596.707
24.7039,3586.2699
24.7259,3573.1957
24.7479,3576.2802
24.7699,3440.8492
24.7919,3356.5299
24.8139,3432.0287
24.8359,3282.566
24.8579,3258.768
24.8799,3284.5295
24.9019,3290.5988
24.9239,3196.8425
24.9459,3132.1523
24.9679,3060.2786
24.9899,3028.4828
25.0119,3045.6608
25.0339,3021.9321
25.0559,2891.3808
25.0779,2796.8966
25.0999,2834.4116
25.1219,2824.2428
25.1439,2805.2423
25.1659,2873.124
25.1879,2839.5914
25.2099,2885.6028
25.2319,2804.3627
25.2539,2715.346
25.2759,2749.3427
25.2979,2788.9055
25.3199,2739.5365
25.3419,2810.0647
25.3639,2723.376
25.3859,2662.115
25.4079,2642.6653
25.4299,2701.9409
25.4519,2662.7866
25.4739,2668.0198
25.4959,2736.8026
25.5179,2866.5194
25.5399,3010.5083
25.5619,3235.2128
25.5839,3452.2478
25.6059,3509.0142
25.6279,3686.4351
25.6499,3620.0712
25.6719,3328.6266
25.6939,3159.0438
25.7159,2904.9632
25.7379,2706.1435
25.7599,2626.1856
25.7819,2536.0453
25.8039,2579.09
25.8259,2580.7876
25.8479,2569.3244
25.8699,2534.4435
25.8919,2568.2656
25.9139,2612.4592
25.9359,2592.7516
25.9579,2580.9205
25.9799,2615.1799
26.0019,2595.995
26.0239,2552.9984
26.0459,2502.2123
26.0679,2475.2374
26.0899,2473.9469
26.1119,2478.6721
26.1339,2431.106
26.1559,2411.0001
26.1779,2431.3648
26.1999,2386.1316
26.2219,2394.5606
26.2439,2428.0575
26.2659,2443.651
26.2879,2428.5913
26.3099,2393.1071
26.3319,2434.8581
26.3539,2428.0884
26.3759,2452.4559
26.3979,2405.5052
26.4199,2386.2523
26.4419,2408.5772
26.4639,2450.6363
26.4859,2434.7816
26.5079,2430.8432
26.5299,2392.7541
26.5519,2341.1017
26.5739,2347.0718
26.5959,2382.3413
26.6179,2437.4868
26.6399,2468.1785
26.6619,2487.8712
26.6839,2491.205
26.7059,2444.9851
26.7279,2526.6113
26.7499,2506.2388
26.7719,2590.8566
26.7939,2752.7388
26.8159,2781.3437
26.8379,2960.848
26.8599,2847.4294
26.8819,2860.885
26.9039,2747.427
26.9259,2657.0038
26.9479,2568.0618
26.9699,2497.1208
26.9919,2502.7036
27.0139,2413.8789
27.0359,2297.9609
27.0579,2418.3428
27.0799,2255.2939
27.1019,2449.8384
27.1239,2274.8978
27.1459,2296.5841
27.1679,2305.0383
27.1899,2282.0493
27.2119,2341.0103
27.2339,2336.1132
27.2559,2380.3127
27.2779,2380.5812
27.2999,2419.5565
27.3219,2439.5056
27.3439,2539.3673
27.3659,2592.6649
27.3879,2691.7972
27.4099,2815.2361
27.4319,2834.4093
27.4539,2731.7552
27.4759,2759.9868
27.4979,2707.8166
27.5199,2505.8825
27.5419,2490.9556
27.5639,2411.3691
27.5859,2341.6842
27.6079,2274.2403
27.6299,2247.6175
27.6519,2246.9705
27.6739,2258.4927
27.6959,2331.7583
27.7179,2379.8573
27.7399,2344.0708
27.7619,2363.9854
27.7839,2377.8273
27.8059,2370.0739
27.8279,2425
27.8499,2391.0726
27.8719,2378.8158
27.8939,2452.6216
27.9159,2483.4346
27.9379,2532.9383
27.9599,2641.6924
27.9819,2871.217
28.0039,3055.2464
28.0259,3046.9341
28.0479,2989.7796
28.0699,2899.4983
28.0919,2804.8179
28.1139,2699.1069
28.1359,2591.9865
28.1579,2572.7916
28.1799,2521.9221
28.2019,2606.5402
28.2239,2700.2144
28.2459,2795.4535
28.2679,2765.9659
28.2899,2699.7728
28.3119,2648.3647
28.3339,2578.522
28.3559,2573.0404
28.3779,2486.3252
28.3999,2444.202
28.4219,2414.1907
28.4439,2496.2795
28.4659,2499.8642
28.4879,2460.2802
28.5099,2442.2183
28.5319,2444.1372
28.5539,2457.5959
28.5759,2592.0628
28.5979,2537.2122
28.6199,2606.5238
28.6419,2566.4443
28.6639,2637.5017
28.6859,2734.6069
28.7079,2823.5415
28.7299,2759.6459
28.7519,2888.0485
28.7739,2999.9275
28.7959,3007.8997
28.8179,3038.6038
28.8399,3229.9065
28.8619,3258.9236
28.8839,3420.3855
28.9059,3444.2955
28.9279,3663.3186
28.9499,3654.7553
28.9719,3724.0441
28.9939,3672.4601
29.0159,3647.6837
29.0379,3545.1195
29.0599,3336.4897
29.0819,3311.8452
29.1039,3145.2593
29.1259,3195.3447
29.1479,3009.6164
29.1699,2933.7836
29.1919,2860.2638
29.2139,2774.8821
29.2359,2821.1037
29.2579,2817.3097
29.2799,2788.0747
29.3019,2783.7287
29.3239,2782.7874
29.3459,2729.595
29.3679,2751.3495
29.3899,2742.8525
29.4119,2772.7795
29.4339,2823.4728
29.4559,2763.6282
29.4779,2726.4739
29.4999,2700.527
29.5219,2720.4515
29.5439,2710.6468
29.5659,2676.2706
29.5879,2709.2949
29.6099,2706.5006
29.6319,2754.4917
29.6539,2818.5165
29.6759,3191.5354
29.6979,3987.2006
29.7199,4431.0751
29.7419,4131.1749
29.7639,3727.7202
29.7859,3521.0203
29.8079,3137.3744
29.8299,2723.2167
29.8519,2582.8391
29.8739,2528.0598
29.8959,2461.5048
29.9179,2435.8053
29.9399,2412.4375
29.9619,2261.0811
29.9839,2282.1832
30.0059,2279.4629
30.0279,2240.3677
30.0499,2287.6639
30.0719,2249.4093
30.0939,2190.1956
30.1159,2152.0663
30.1379,2180.4082
30.1599,2205.3176
30.1819,2198.5103
30.2039,2193.4769
30.2259,2240.2047
30.2479,2254
30.2699,2271.5654
30.2919,2306.8074
30.3139,2260.5043
30.3359,2326.6831
30.3579,2404.7219
30.3799,2443.5163
30.4019,2454.9774
30.4239,2453.3466
30.4459,2520.2568
30.4679,2547.09
30.4899,2678.9089
30.5119,2748.8187
30.5339,2814.4849
30.5559,2986.6454
30.5779,2897.9201
30.5999,2894.0172
30.6219,3058.1892
30.6439,3123.509
30.6659,3195.8352
30.6879,3390.7712
30.7099,3519.337
30.7319,3849.4113
30.7539,4204.9366
30.7759,4429.7956
30.7979,4746.1036
30.8199,5410.42
30.8419,6367.0227
30.8639,7437.6069
30.8859,9694.833
30.9079,13183.4448
30.9299,18543.6354
30.9519,26025.8513
30.9739,38061.1681
30.9959,55644.9378
31.0179,71254.9712
31.0399,71637.5855
31.0619,56986.6412
31.0839,44017.721
31.1059,34808.0079
31.1279,22403.0834
31.1499,11750.6579
31.1719,6824.5308
31.1939,5185.6739
31.2159,4581.6665
31.2379,4258.0346
31.2599,3964.1795
31.2819,3720.6739
31.3039,3472.0704
31.3259,3368.6696
31.3479,3301.2902
31.3699,3163.4629
31.3919,3111.0802
31.4139,3023.5482
31.4359,2884.4041
31.4579,2871.7729
31.4799,2911.5316
31.5019,3076.6024
31.5239,3200.0157
31.5459,3182.7964
31.5679,3077.1338
31.5899,2939.6979
31.6119,2797.2307
31.6339,2602.3447
31.6559,2479.0613
31.6779,2413.2162
31.6999,2362.8981
31.7219,2307.1542
31.7439,2304.6333
31.7659,2354.5164
31.7879,2417.6698
31.8099,2595.8186
31.8319,2655.1961
31.8539,2800.1284
31.8759,3073.746
31.8979,3358.8148
31.9199,4001.8012
31.9419,4967.9326
31.9639,5610.4407
31.9859,5702.9291
32.0079,5266.5095
32.0299,4891.9786
32.0519,4505.3983
32.0739,3745.7119
32.0959,3166.3395
32.1179,2820.5824
32.1399,2518.579
32.1619,2336.8374
32.1839,2371.2715
32.2059,2301.6763
32.2279,2303.4927
32.2499,2437.9797
32.2719,2513.4333
32.2939,2670.4606
32.3159,2832.6395
32.3379,2787.6341
32.3599,2749.2551
32.3819,2677.5574
32.4039,2742.3743
32.4259,2788.8148
32.4479,3068.4358
32.4699,3370.9148
32.4919,3944.0715
32.5139,4228.0421
32.5359,4571.7495
32.5579,5074.3485
32.5799,5213.2111
32.6019,5069.6519
32.6239,4598.0041
32.6459,3857.7048
32.6679,3398.8431
32.6899,3106.9987
32.7119,2582.5731
32.7339,2341.9231
32.7559,2270.5765
32.7779,2202.6106
32.7999,2182.0595
32.8219,2182.6371
32.8439,2171.2365
32.8659,2169.5123
32.8879,2155.7345
32.9099,2157.6816
32.9319,2244.2776
32.9539,2318.0825
32.9759,2273.2477
32.9979,2195.3625
33.0199,2126.7405
33.0419,2121.1246
33.0639,2031.8273
33.0859,1983.6724
33.1079,1943.3205
33.1299,1882.6556
33.1519,1864.9723
33.1739,1922.4325
33.1959,1838.0233
33.2179,1800.2893
33.2399,1839.8309
33.2619,1873.9608
33.2839,1909.0354
33.3059,1861.5081
33.3279,1837.3167
33.3499,1863.6342
33.3719,1851.056
33.3939,1830.4749
33.4159,1789.4128
33.4379,1793.3954
33.4599,1800.0004
33.4819,1766.8406
33.5039,1711.2402
33.5259,1775.3907
33.5479,1757.0543
33.5699,1725.1997
33.5919,1756.212
33.6139,1779
33.6359,1733.7569
33.6579,1740.4151
33.6799,1769.4779
33.7019,1776
33.7239,1743.2344
33.7459,1753.2125
33.7679,1749.7094
33.7899,1717.6951
33.8119,1795.279
33.8339,1707.0901
33.8559,1802.0918
33.8779,1765.4246
33.8999,1756.6116
33.9219,1785.6785
33.9439,1772.2772
33.9659,1765.5467
33.9879,1782.5123
34.0099,1795.6549
34.0319,1816.8044
34.0539,1843.6372
34.0759,1871.8939
34.0979,2047.3584
34.1199,2032.4178
34.1419,2032.9233
34.1639,2188.8313
34.1859,2169.3303
34.2079,2558.4258
34.2299,2859.3599
34.2519,3264.5169
34.2739,3545.0977
34.2959,3685.7169
34.3179,3717.4807
34.3399,3661.3047
34.3619,3439.3046
34.3839,3332.3671
34.4059,3081.4388
34.4279,2789.861
34.4499,2479.1159
34.4719,2405.225
34.4939,2186.343
34.5159,2127.6641
34.5379,2087.2448
34.5599,2050.5804
34.5819,1984.0953
34.6039,1970.8023
34.6259,1972.9785
34.6479,1969.3477
34.6699,1854.2035
34.6919,1866.4805
34.7139,1901.9075
34.7359,1890.6654
34.7579,1931.8839
34.7799,1916.4095
34.8019,1904.41
34.8239,1877.7477
34.8459,1858.2252
34.8679,1837.0043
34.8899,1777.9133
34.9119,1733.1755
34.9339,1723.2802
34.9559,1740.1467
34.9779,1751.1306
34.9999,1743.8955
35.0219,1740.7912
35.0439,1719.0932
35.0659,1808.7967
35.0879,1796.0617
35.1099,1789.2362
35.1319,1809.2034
35.1539,1787.7434
35.1759,1805.4833
35.1979,1798.2447
35.2199,1783
35.2419,1784.1524
35.2639,1746.7476
35.2859,1736.8221
35.3079,1759.6485
35.3299,1770.1269
35.3519,1775.826
35.3739,1757.8514
35.3959,1741.702
35.4179,1756.5379
35.4399,1778.7365
35.4619,1791.2921
35.4839,1815.3423
35.5059,1849.3295
35.5279,1884.0237
35.5499,1881.0275
35.5719,1800.1821
35.5939,1802.2774
35.6159,1729.129
35.6379,1722.1515
35.6599,1719.5221
35.6819,1671.1444
35.7039,1670.1775
35.7259,1677.0797
35.7479,1677.1411
35.7699,1657.8338
35.7919,1685.0384
35.8139,1663.0225
35.8359,1694.5065
35.8579,1698
35.8799,1689.6062
35.9019,1648.3676
35.9239,1680.4603
35.9459,1674.2438
35.9679,1621.964
35.9899,1731.3454
36.0119,1590.5435
36.0339,1672.9446
36.0559,1567.7259
36.0779,1651.3558
36.0999,1616.2223
36.1219,1634.0146
36.1439,1593.8815
36.1659,1597.5298
36.1879,1535.5708
36.2099,1552.8614
36.2319,1583.293
36.2539,1589.4513
36.2759,1570.7684
36.2979,1560.3118
36.3199,1582.544
36.3419,1518.8614
36.3639,1542.3708
36.3859,1610.0416
36.4079,1675.5617
36.4299,1640.3513
36.4519,1719.6858
36.4739,1680.2781
36.4959,1637.6431
36.5179,1654.4218
36.5399,1625.2731
36.5619,1589.2303
36.5839,1624.5971
36.6059,1581.5006
36.6279,1585.7717
36.6499,1582.4781
36.6719,1611.992
36.6939,1588.2715
36.7159,1618.7965
36.7379,1600.8681
36.7599,1578.5773
36.7819,1559.454
36.8039,1529.8526
36.8259,1553
36.8479,1530.7477
36.8699,1522.0296
36.8919,1550.4548
36.9139,1588.537
36.9359,1605.1155
36.9579,1527.9967
36.9799,1502.4736
37.0019,1514.7747
37.0239,1503.7153
37.0459,1516.0974
37.0679,1507.8982
37.0899,1508.5645
37.1119,1475.6385
37.1339,1480.7622
37.1559,1441.1935
37.1779,1433.6815
37.1999,1474.1447
37.2219,1448.4207
37.2439,1490.4383
37.2659,1464.6832
37.2879,1503.4191
37.3099,1556.9942
37.3319,1513.6984
37.3539,1562.2972
37.3759,1556.3362
37.3979,1523.7974
37.4199,1604.2324
37.4419,1639.0797
37.4639,1570.8685
37.4859,1571.5979
37.5079,1510.1517
37.5299,1587.7201
37.5519,1558.7948
37.5739,1501.8936
37.5959,1446.8671
37.6179,1510.5804
37.6399,1482.2787
37.6619,1414.0244
37.6839,1468.2524
37.7059,1489.1505
37.7279,1535.3595
37.7499,1503.7688
37.7719,1479.2477
37.7939,1516.0039
37.8159,1518.2567
37.8379,1534.0352
37.8599,1461.3008
37.8819,1447.6816
37.9039,1511.2432
37.9259,1445.2401
37.9479,1490.4875
37.9699,1425.2066
37.9919,1443.6489
38.0139,1437.121
38.0359,1458.3184
38.0579,1413.5871
38.0799,1440.1466
38.1019,1473.2183
38.1239,1462.4162
38.1459,1414.0338
38.1679,1490.1192
38.1899,1412
38.2119,1425.188
38.2339,1461.8052
38.2559,1459.1251
38.2779,1490.2919
38.2999,1465.2332
38.3219,1488.2309
38.3439,1458
38.3659,1460.8938
38.3879,1468.0015
38.4099,1469.3078
38.4319,1465.4911
38.4539,1509.5618
38.4759,1565.5735
38.4979,1524.1858
38.5199,1545.5636
38.5419,1584.4966
38.5639,1595.1106
38.5859,1587.3333
38.6079,1549.7446
38.6299,1511.3451
38.6519,1528.4396
38.6739,1557.3275
38.6959,1576.059
38.7179,1574.7817
38.7399,1606.6644
38.7619,1599.8346
38.7839,1614.2908
38.8059,1632.5751
38.8279,1647.7214
38.8499,1632.1158
38.8719,1583.6435
38.8939,1560.3687
38.9159,1620.3966
38.9379,1618.6104
38.9599,1555.4895
38.9819,1559.9618
39.0039,1568.9321
39.0259,1541.4601
39.0479,1555.9947
39.0699,1574.8634
39.0919,1508.9216
39.1139,1508.8801
39.1359,1557.0896
39.1579,1520.339
39.1799,1467.7373
39.2019,1493.2755
39.2239,1473.3671
39.2459,1453.8023
39.2679,1490.6226
39.2899,1439.519
39.3119,1472.2027
39.3339,1447.231
39.3559,1439.3761
39.3779,1458.5124
39.3999,1426.8298
39.4219,1428.469
39.4439,1457.6378
39.4659,1493.6992
39.4879,1459.0132
39.5099,1491.5842
39.5319,1537.7563
39.5539,1475.9438
39.5759,1481.9828
39.5979,1437.6983
39.6199,1507.4911
39.6419,1484.8279
39.6639,1474.5351
39.6859,1369.608
39.7079,1474.9287
39.7299,1475.5881
39.7519,1488.494
39.7739,1447.947
39.7959,1465.9273
39.8179,1481.9912
39.8399,1492.5344
39.8619,1486.4957
39.8839,1530.1342
39.9059,1531.3689
39.9279,1583.826
39.9499,1594.3715
39.9719,1545.5005
39.9939,1559.1554
40.0159,1574.1948
40.0379,1611.8122
40.0599,1601.5116
40.0819,1553.8024
40.1039,1555.7345
40.1259,1569.5194
40.1479,1647.7583
40.1699,1664.5888
40.1919,1598.7899
40.2139,1570.5134
40.2359,1595.5349
40.2579,1623.664
40.2799,1654.4571
40.3019,1663.5087
40.3239,1739.0331
40.3459,1758.295
40.3679,1782.3616
40.3899,1828.237
40.4119,1832.354
40.4339,1875.1665
40.4559,1872.7219
40.4779,1790.4276
40.4999,1804.0189
40.5219,1896.2884
40.5439,1953.9986
40.5659,1959.4494
40.5879,1956.7483
40.6099,1975.1328
40.6319,2017.0257
40.6539,2060.5921
40.6759,2073.3274
40.6979,2139.6827
40.7199,2196.917
40.7419,2244.2893
40.7639,2305.337
40.7859,2286.9339
40.8079,2290.6328
40.8299,2289.1317
40.8519,2401.2203
40.8739,2475.0178
40.8959,2354.1686
40.9179,2301.7689
40.9399,2254.4246
40.9619,2246.175
40.9839,2218.9856
41.0059,2134.5395
41.0279,2169.1865
41.0499,2189.3894
41.0719,2179.3333
41.0939,2165.1612
41.1159,2187.0217
41.1379,2202.3127
41.1599,2392.8551
41.1819,2411.7365
41.2039,2353.8538
41.2259,2313.0638
41.2479,2272.7334
41.2699,2290.767
41.2919,2199.244
41.3139,2183.3775
41.3359,2142.786
41.3579,2052.6192
41.3799,2138.3777
41.4019,2023.1326
41.4239,1973.6203
41.4459,1931.0719
41.4679,1974.5618
41.4899,1918.009
41.5119,1961.1874
41.5339,1978.7494
41.5559,2009.5681
41.5779,1953.0718
41.5999,1957.8056
41.6219,2043.0621
41.6439,2073.8471
41.6659,2069.6961
41.6879,2051.7576
41.7099,2046.9489
41.7319,2037.8656
41.7539,1982.7846
41.7759,1981.4259
41.7979,2018.6726
41.8199,2024
41.8419,2044.8183
41.8639,2106.5856
41.8859,2129.541
41.9079,2149.1818
41.9299,2127.6314
41.9519,2195.5221
41.9739,2277.5446
41.9959,2220.9953
42.0179,2197.4222
42.0399,2286.3467
42.0619,2317.0473
42.0839,2301.8995
42.1059,2246.7797
42.1279,2220.1843
42.1499,2210.89
42.1719,2138.5574
42.1939,2052.2479
42.2159,2040.0922
42.2379,1988.8505
42.2599,1956.6208
42.2819,1985.9157
42.3039,2011.048
42.3259,1969.7108
42.3479,1926.874
42.3699,1927.2233
42.3919,1956.5576
42.4139,1949.6735
42.4359,1958.8384
42.4579,1971.7847
42.4799,2034.2363
42.5019,2088.8064
42.5239,2137.3173
42.5459,2158.3432
42.5679,2259.7075
42.5899,2626.1785
42.6119,3333.1304
42.6339,4127.151
42.6559,5209.7678
42.6779,6417.3165
42.6999,6883.8605
42.7219,5860.1547
42.7439,4697.7287
42.7659,4516.4988
42.7879,4417.7783
42.8099,3889.9243
42.8319,3088.7549
42.8539,2572.1077
42.8759,2246.3216
42.8979,2179.3696
42.9199,2072.1058
42.9419,2178.9306
42.9639,2110.5248
42.9859,2080.1415
43.0079,2087.1495
43.0299,2006.4029
43.0519,2046.037
43.0739,1995.698
43.0959,1931.2967
43.1179,1995.3955
43.1399,1952.5087
43.1619,1885.0622
43.1839,1947.5486
43.2059,1912.2358
43.2279,1845.8708
43.2499,1865.7432
43.2719,1824.6859
43.2939,1843.8719
43.3159,1768.5221
43.3379,1777.6747
43.3599,1804.6385
43.3819,1746.5662
43.4039,1698.2218
43.4259,1720.3971
43.4479,1702.5208
43.4699,1735.578
43.4919,1677.849
43.5139,1678.6256
43.5359,1719.7357
43.5579,1650.1111
43.5799,1633.398
43.6019,1605.5361
43.6239,1674.1369
43.6459,1721.115
43.6679,1718.4962
43.6899,1741.7443
43.7119,1722.286
43.7339,1705.6166
43.7559,1727.6642
43.7779,1699.5926
43.7999,1637.8554
43.8219,1659.5106
43.8439,1735.0888
43.8659,1787.3943
43.8879,1745.7145
43.9099,1690.2832
43.9319,1752.4655
43.9539,1801.7137
43.9759,1793.2302
43.9979,1800.4906
44.0199,1775.3539
44.0419,1757.6253
44.0639,1787.3739
44.0859,1836.8958
44.1079,1888.7716
44.1299,1884.3655
44.1519,1869.3929
44.1739,1865.7432
44.1959,1824.96
44.2179,1803.0452
44.2399,1860.1183
44.2619,1836.8305
44.2839,1803.6505
44.3059,1760.9113
44.3279,1751.9627
44.3499,1749.7
44.3719,1730.4601
44.3939,1723.3107
44.4159,1675.9944
44.4379,1700.9737
44.4599,1742.2371
44.4819,1763.5536
44.5039,1770.2522
44.5259,1795.417
44.5479,1758.0313
44.5699,1747.3628
44.5919,1748.7999
44.6139,1710.8268
44.6359,1734.9795
44.6579,1726.1012
44.6799,1814.6995
44.7019,1873.2067
44.7239,1807.4869
44.7459,1868.7613
44.7679,1844.7654
44.7899,1840.0895
44.8119,1784.6311
44.8339,1896.8883
44.8559,1908.7896
44.8779,1927.2341
44.8999,1876.4851
44.9219,1908.4652
44.9439,1888.0722
44.9659,1955.3807
44.9879,1996.4988
45.0099,1928.9392
45.0319,1979.1928
45.0539,1855.3312
45.0759,1815.3748
45.0979,1861.3216
45.1199,1867.9343
45.1419,1784.9978
45.1639,1737.8673
45.1859,1756.8918
45.2079,1747.0335
45.2299,1756.3035
45.2519,1687.1182
45.2739,1720.1737
45.2959,1648.8305
45.3179,1664.0678
45.3399,1647.3958
45.3619,1660.6018
45.3839,1678.6662
45.4059,1678.3411
45.4279,1653.5339
45.4499,1641.5957
45.4719,1613.1225
45.4939,1632.2537
45.5159,1647.6903
45.5379,1652.1179
45.5599,1627.8229
45.5819,1610.588
45.6039,1579.5071
45.6259,1545.1034
45.6479,1614.8357
45.6699,1643.5768
45.6919,1596.506
45.7139,1631.9362
45.7359,1636.1946
45.7579,1617.8053
45.7799,1642.7175
45.8019,1685.181
45.8239,1696.1651
45.8459,1678.4896
45.8679,1697.2288
45.8899,1721.3245
45.9119,1682.5337
45.9339,1677.834
45.9559,1723.7258
45.9779,1795.256
45.9999,1876.2303
46.0219,1965.2835
46.0439,2140.0563
46.0659,2519.6241
46.0879,3199.8361
46.1099,4112.6602
46.1319,4974.9408
46.1539,5751.7902
46.1759,5518.2276
46.1979,4484.818
46.2199,3785.7918
46.2419,3753.7036
46.2639,3742.4162
46.2859,3280.4345
46.3079,2523.1142
46.3299,2027.8079
46.3519,1706.9591
46.3739,1571.4068
46.3959,1616.8139
46.4179,1571.3154
46.4399,1492.2441
46.4619,1549.9501
46.4839,1524.4379
46.5059,1494.5309
46.5279,1491
46.5499,1448.991
46.5719,1467.5586
46.5939,1491.123
46.6159,1513.475
46.6379,1498.9695
46.6599,1501.8211
46.6819,1486.5191
46.7039,1462.4837
46.7259,1501.6855
46.7479,1340.6465
46.7699,1485.5486
46.7919,1462.1041
46.8139,1563.6045
46.8359,1508.3216
46.8579,1516.7671
46.8799,1551.8567
46.9019,1504.5379
46.9239,1525.6516
46.9459,1573.1592
46.9679,1572.8799
46.9899,1668.8378
47.0119,1689.7998
47.0339,1811.8277
47.0559,2043.4815
47.0779,2418.229
47.0999,2939.5589
47.1219,3424.8282
47.1439,3581.9097
47.1659,3082.7742
47.1879,2653.655
47.2099,2416.3074
47.2319,2515.7222
47.2539,2335.2988
47.2759,2036.9724
47.2979,1767.4122
47.3199,1589.4165
47.3419,1501.2477
47.3639,1463.874
47.3859,1431.0826
47.4079,1410.6104
47.4299,1355.2693
47.4519,1343.7052
47.4739,1385.4013
47.4959,1402.2428
47.5179,1394.7385
47.5399,1361.2475
47.5619,1352.8174
47.5839,1376.1405
47.6059,1368.5458
47.6279,1397.8821
47.6499,1347.9297
47.6719,1355.8088
47.6939,1378.3645
47.7159,1355.1761
47.7379,1343.5839
47.7599,1366.0268
47.7819,1382.4473
47.8039,1373.1888
47.8259,1366.113
47.8479,1381.4264
47.8699,1426.1949
47.8919,1383.2179
47.9139,1338.5063
47.9359,1357.7214
47.9579,1365.9174
47.9799,1382.7036
48.0019,1410.7405
48.0239,1370.9403
48.0459,1394.3168
48.0679,1447.8365
48.0899,1411.2239
48.1119,1409.563
48.1339,1362.6015
48.1559,1405.7471
48.1779,1445.1004
48.1999,1432.2403
48.2219,1442.9027
48.2439,1472.887
48.2659,1476.295
48.2879,1490.7016
48.3099,1510.5419
48.3319,1466.752
48.3539,1441.1631
48.3759,1432.6022
48.3979,1380.1296
48.4199,1372.2458
48.4419,1432.8537
48.4639,1391.696
48.4859,1449.5007
48.5079,1388.7741
48.5299,1299.0003
48.5519,1378.6557
48.5739,1351.2704
48.5959,1360.5618
48.6179,1325.2617
48.6399,1373.6094
48.6619,1434.0437
48.6839,1313.9043
48.7059,1363.345
48.7279,1341.4337
48.7499,1362.475
48.7719,1371.1071
48.7939,1351.6252
48.8159,1314.7523
48.8379,1359.2825
48.8599,1425.6032
48.8819,1421.4898
48.9039,1438.1793
48.9259,1430.4253
48.9479,1521.1556
48.9699,1459.8257
48.9919,1403.5812
49.0139,1399.9133
49.0359,1392.0504
49.0579,1423.5159
49.0799,1330.5846
49.1019,1278.5657
49.1239,1348.9294
49.1459,1343.1431
49.1679,1303.4364
49.1899,1366.7936
49.2119,1348.3282
49.2339,1311.2931
49.2559,1282.0616
49.2779,1280.1627
49.2999,1350.117
49.3219,1305.6015
49.3439,1280.1005
49.3659,1276.3774
49.3879,1256.5458
49.4099,1264.0668
49.4319,1290.7402
49.4539,1333.3895
49.4759,1343.943
49.4979,1339.7551
49.5199,1370.1861
49.5419,1425.835
49.5639,1509.8121
49.5859,1664.7352
49.6079,1957.8155
49.6299,2533.0331
49.6519,3145.005
49.6739,3759.6052
49.6959,4302.7319
49.7179,4384.7075
49.7399,3920.8447
49.7619,3352.823
49.7839,2976.1213
49.8059,2914.5154
49.8279,2817.2236
49.8499,2424.9657
49.8719,2024.8388
49.8939,1653.328
49.9159,1506.3758
49.9379,1358.4192
49.9599,1362.9461
49.9819,1381.1121
50.0039,1405.2346
50.0259,1350.6585
50.0479,1308.4689
50.0699,1251.3774
50.0919,1298.8508
50.1139,1310.5398
50.1359,1306.5137
50.1579,1285.9901
50.1799,1277.5472
50.2019,1256.4493
50.2239,1228.5004
50.2459,1235.6284
50.2679,1219.4931
50.2899,1195.4011
50.3119,1254.7347
50.3339,1261.8898
50.3559,1246.9718
50.3779,1197.9411
50.3999,1223.0469
50.4219,1160.9696
50.4439,1181.8528
50.4659,1248.061
50.4879,1257.4645
50.5099,1245.2128
50.5319,1351.9102
50.5539,1370.276
50.5759,1309.7304
50.5979,1381.4574
50.6199,1413.282
50.6419,1376.658
50.6639,1420.6487
50.6859,1444.4576
50.7079,1320.0709
50.7299,1355.2883
50.7519,1394.2064
50.7739,1378.5369
50.7959,1361.5296
50.8179,1292.3304
50.8399,1286.5472
50.8619,1288.1485
50.8839,1286.7638
50.9059,1242.6104
50.9279,1218.474
50.9499,1249.1929
50.9719,1279.7286
50.9939,1271.9616
51.0159,1248.8333
51.0379,1219.1503
51.0599,1206.8177
51.0819,1191.3645
51.1039,1166.5887
51.1259,1219.5705
51.1479,1230.256
51.1699,1164.156
51.1919,1130.2061
51.2139,1124.5171
51.2359,1128.4957
51.2579,1147.9518
51.2799,1175.4284
51.3019,1182.4424
51.3239,1173.6097
51.3459,1120.1009
51.3679,1101.0075
51.3899,1103.054
51.4119,1128.9978
51.4339,1178.7642
51.4559,1177.8627
51.4779,1154.4129
51.4999,1160.1859
51.5219,1128.7195
51.5439,1185.9105
51.5659,1160.4333
51.5879,1173.6738
51.6099,1222.4338
51.6319,1165.361
51.6539,1116.8947
51.6759,1131.7287
51.6979,1139
51.7199,1204.7053
51.7419,1165.0017
51.7639,1192.7598
51.7859,1164.5033
51.8079,1240.7998
51.8299,1188.8197
51.8519,1134.9143
51.8739,1248.6859
51.8959,1213.2874
51.9179,1126.5385
51.9399,1136.0075
51.9619,1108.6429
51.9839,1132.0316
52.0059,1152.8398
52.0279,1134.9144
52.0499,1135.9331
52.0719,1111.5284
52.0939,1163.5312
52.1159,1095.2791
52.1379,1175.103
52.1599,1121.4664
52.1819,1205.8308
52.2039,1176.9478
52.2259,1159.4927
52.2479,1178.1439
52.2699,1147.1319
52.2919,1178.8982
52.3139,1181.3079
52.3359,1211.4225
52.3579,1222.3121
52.3799,1111.1694
52.4019,1163.8798
52.4239,1118.1432
52.4459,1146.8122
52.4679,1160.6075
52.4899,1204.982
52.5119,1140.867
52.5339,1108.479
52.5559,1140.4956
52.5779,1161.4781
52.5999,1204.9877
52.6219,1179.5455
52.6439,1147.3404
52.6659,1178.0394
52.6879,1184.4159
52.7099,1173.2998
52.7319,1164.0856
52.7539,1180.596
52.7759,1183.6468
52.7979,1150.2311
52.8199,1197.4046
52.8419,1264.8642
52.8639,1247.5732
52.8859,1255.0798
52.9079,1298.2829
52.9299,1320.5418
52.9519,1269.1854
52.9739,1252.0721
52.9959,1287.5737
53.0179,1233.3212
53.0399,1237.8883
53.0619,1291.4475
53.0839,1317.0488
53.1059,1309.6252
53.1279,1282.4675
53.1499,1306.2185
53.1719,1374.8799
53.1939,1347.6407
53.2159,1311.472
53.2379,1347.0356
53.2599,1415.8361
53.2819,1442.3451
53.3039,1548.746
53.3259,1510.2738
53.3479,1449.0146
53.3699,1418.4709
53.3919,1454.1286
53.4139,1438.4836
53.4359,1394.8818
53.4579,1405.8428
53.4799,1354.0572
53.5019,1385.0003
53.5239,1419.5419
53.5459,1455.4898
53.5679,1522.4698
53.5899,1556.6737
53.6119,1844.6622
53.6339,2100.8122
53.6559,2552.3609
53.6779,3324.1449
53.6999,3981.916
53.7219,4137.5658
53.7439,3236.7555
53.7659,2587.4331
53.7879,2350.7366
53.8099,2622.957
53.8319,2765.9656
53.8539,2490.3616
53.8759,1996.5422
53.8979,1642.3407
53.9199,1426.2082
53.9419,1355.395
53.9639,1287.3489
53.9859,1241.699
54.0079,1217.5724
54.0299,1239.5259
54.0519,1203.0666
54.0739,1152.1417
54.0959,1180.223
54.1179,1238.8306
54.1399,1181.8791
54.1619,1191.5093
54.1839,1183.8286
54.2059,1209.5632
54.2279,1165.4185
54.2499,1191.6519
54.2719,1190.9427
54.2939,1223.2379
54.3159,1207.0003
54.3379,1190.1596
54.3599,1217.6294
54.3819,1164.3158
54.4039,1196.6903
54.4259,1201
54.4479,1180.4781
54.4699,1136.5487
54.4919,1151.9264
54.5139,1179.2066
54.5359,1172.7387
54.5579,1154.3876
54.5799,1168.518
54.6019,1136.469
54.6239,1128.9769
54.6459,1086.8098
54.6679,1088.6554
54.6899,1177.245
54.7119,1172.2181
54.7339,1161.3807
54.7559,1164.6488
54.7779,1163.7199
54.7999,1171.9586
54.8219,1177.3659
54.8439,1165.7884
54.8659,1140.6814
54.8879,1146.9381
54.9099,1152.7424
54.9319,1168.8777
54.9539,1174.9321
54.9759,1151.9615
54.9979,1205.0388
55.0199,1171.5221
55.0419,1158.9078
55.0639,1172.4469
55.0859,1165.3608
55.1079,1208.902
55.1299,1195.9467
55.1519,1186.9961
55.1739,1223.4594
55.1959,1223.9645
55.2179,1195.4325
55.2399,1314.2918
55.2619,1417.1242
55.2839,1431.3599
55.3059,1408.7875
55.3279,1473.2187
55.3499,1461.0215
55.3719,1379.9731
55.3939,1370.6785
55.4159,1417.7436
55.4379,1344.3575
55.4599,1323.1548
55.4819,1300.7846
55.5039,1313.2366
55.5259,1235.9554
55.5479,1215.1081
55.5699,1229.8634
55.5919,1185.6193
55.6139,1234.717
55.6359,1270.9505
55.6579,1252.3539
55.6799,1240.0648
55.7019,1288.5441
55.7239,1366.9425
55.7459,1364.4091
55.7679,1377.0875
55.7899,1381.4663
55.8119,1426.6905
55.8339,1471.4363
55.8559,1409.3009
55.8779,1424.42
55.8999,1439.2422
55.9219,1407.4222
55.9439,1470.6436
55.9659,1391.3894
55.9879,1398.6667
56.0099,1378.209
56.0319,1298.5026
56.0539,1318.4689
56.0759,1283.82
56.0979,1255.875
56.1199,1236.0592
56.1419,1257.8592
56.1639,1210.52
56.1859,1181.1769
56.2079,1195.2477
56.2299,1262.4719
56.2519,1228.7519
56.2739,1174.0825
56.2959,1172.4362
56.3179,1192.3718
56.3399,1206.7267
56.3619,1219.6442
56.3839,1234.733
56.4059,1230.8014
56.4279,1259.337
56.4499,1319.0622
56.4719,1349.9405
56.4939,1294.323
56.5159,1242.5414
56.5379,1241.7816
56.5599,1272.6789
56.5819,1268.6574
56.6039,1248.2033
56.6259,1280.5231
56.6479,1262.7963
56.6699,1251.3815
56.6919,1224.7608
56.7139,1226.1801
56.7359,1222.2019
56.7579,1181.5288
56.7799,1216.1685
56.8019,1237.1926
56.8239,1204.6508
56.8459,1161.575
56.8679,1165.7494
56.8899,1174.6588
56.9119,1195.1698
56.9339,1243.2352
56.9559,1240.8981
56.9779,1238.7581
56.9999,1256.3732
57.0219,1284.3305
57.0439,1266.2742
57.0659,1310.2874
57.0879,1292.4074
57.1099,1337.7525
57.1319,1273.8368
57.1539,1219.8218
57.1759,1288.3957
57.1979,1228.1589
57.2199,1212.2901
57.2419,1205.9292
57.2639,1285.0392
57.2859,1191.6544
57.3079,1168.1504
57.3299,1190.8271
57.3519,1195.7861
57.3739,1158.3597
57.3959,1139.7939
57.4179,1221.0751
57.4399,1189.7742
57.4619,1138.5012
57.4839,1095.197
57.5059,1175
57.5279,1173.1339
57.5499,1107.6128
57.5719,1145.2447
57.5939,1113
57.6159,1114.1431
57.6379,1122.69
57.6599,1071.7293
57.6819,1109.071
57.7039,1137.6149
57.7259,1114.826
57.7479,1116.701
57.7699,1098.8112
57.7919,1099.3347
57.8139,1079.0107
57.8359,1080.5357
57.8579,1148.0907
57.8799,1174.3941
57.9019,1153.4278
57.9239,1149.8959
57.9459,1093.2961
57.9679,1129.8262
57.9899,1148.6171
58.0119,1081.6715
58.0339,1072.5311
58.0559,1117.576
58.0779,1147.2869
58.0999,1101.4423
58.1219,1081.8959
58.1439,1100.4543
58.1659,1102.2477
58.1879,1094.1873
58.2099,1103.3452
58.2319,1078.6899
58.2539,1067.2079
58.2759,1089.3036
58.2979,1051.8849
58.3199,1053.5733
58.3419,1058.1091
58.3639,1100.9517
58.3859,1100.9052
58.4079,1137.9899
58.4299,1140.1321
58.4519,1153.8605
58.4739,1229.889
58.4959,1226.7787
58.5179,1242.2057
58.5399,1250.1135
58.5619,1253.6756
58.5839,1251.3618
58.6059,1253.5517
58.6279,1311.2526
58.6499,1391.3494
58.6719,1357.3777
58.6939,1329.0354
58.7159,1292.6989
58.7379,1361.0694
58.7599,1482.8413
58.7819,1642.1532
58.8039,1897.6591
58.8259,2325.2942
58.8479,3043.6678
58.8699,4440.0297
58.8919,6740.2089
58.9139,9069.9158
58.9359,9859.7423
58.9579,8445.4844
58.9799,6099.9098
59.0019,4643.1172
59.0239,4571.6201
59.0459,5174.5851
59.0679,5591.6694
59.0899,5091.4751
59.1119,3710.4231
59.1339,2522.8375
59.1559,1898.4015
59.1779,1509.019
59.1999,1407.3398
59.2219,1390.3716
59.2439,1307.1973
59.2659,1269.0726
59.2879,1280.0516
59.3099,1284.344
59.3319,1253.626
59.3539,1190.7377
59.3759,1244.9291
59.3979,1229.9382
59.4199,1256.5134
59.4419,1278.0111
59.4639,1325.9779
59.4859,1332.7905
59.5079,1328.6634
59.5299,1348.6673
59.5519,1279.7933
59.5739,1225.9633
59.5959,1187.0322
59.6179,1242.3188
59.6399,1275.2717
59.6619,1218.9229
59.6839,1157.4839
59.7059,1168.7579
59.7279,1124.9609
59.7499,1093.7582
59.7719,1108.4917
59.7939,1103.0046
59.8159,1071.7701
59.8379,1077.8021
59.8599,1052.567
59.8819,1088.425
59.9039,1120.3545
59.9259,1121
59.9479,1119.4838
59.9699,1131.48
59.9919,1138.6616
60.0139,1105.6017
60.0359,1053.3162
60.0579,1033.3956
60.0799,1054.7933
60.1019,1048.418
60.1239,1109.3972
60.1459,1115.3978
60.1679,1088.067
60.1899,1154.8834
60.2119,1117.2249
60.2339,1055.01
60.2559,1076.9204
60.2779,1068.6606
60.2999,1024.9113
60.3219,1039.0445
60.3439,1060.7979
60.3659,1006.5424
60.3879,1010.868
60.4099,1047.655
60.4319,1033.2688
60.4539,1051.4407
60.4759,1033.9717
60.4979,993.9782
60.5199,994.8767
60.5419,1027.7258
60.5639,1006.4555
60.5859,1011.652
60.6079,993.3229
60.6299,1019.2038
60.6519,1011.463
60.6739,1006.7847
60.6959,1022.9391
60.7179,948.503
60.7399,958.7539
60.7619,985.8457
60.7839,984.9233
60.8059,942.7962
60.8279,971.6988
60.8499,972.585
60.8719,997.9633
60.8939,1011.8909
60.9159,1014.8397
60.9379,972.1207
60.9599,1032.2781
60.9819,930.7586
61.0039,903.7123
61.0259,965.8046
61.0479,949.115
61.0699,930.2775
61.0919,976.4905
61.1139,949.4268
61.1359,962.4011
61.1579,954.2315
61.1799,1040.0258
61.2019,988.0267
61.2239,1017.5754
61.2459,968.8989
61.2679,1011.4661
61.2899,1000.0575
61.3119,914.3806
61.3339,1007.3864
61.3559,1004
61.3779,1006.3137
61.3999,1007.867
61.4219,967.7846
61.4439,971.5941
61.4659,985.2828
61.4879,964.2672
61.5099,1096.8035
61.5319,1122.6402
61.5539,1118.6714
61.5759,1080.342
61.5979,1040.3448
61.6199,990.7364
61.6419,989.0425
61.6639,1029.5371
61.6859,1051.5987
61.7079,1036
61.7299,1028.8819
61.7519,996.4929
61.7739,957.2133
61.7959,960.5798
61.8179,1000.3424
61.8399,1019.7143
61.8619,1014.3806
61.8839,1013.6292
61.9059,1007.3648
61.9279,1019.2199
61.9499,1038.9509
61.9719,1029.6262
61.9939,1012.5664
62.0159,1008.1214
62.0379,1012.2941
62.0599,1041.2421
62.0819,1017.4382
62.1039,1019.6807
62.1259,1018.5691
62.1479,1016.596
62.1699,1006.7658
62.1919,1016.5134
62.2139,1017.3893
62.2359,1022.8319
62.2579,1019.6253
62.2799,986.3597
62.3019,1025.7595
62.3239,1044.0545
62.3459,1025.4679
62.3679,1024.1175
62.3899,1016.3362
62.4119,976.7284
62.4339,1027.9719
62.4559,1043.879
62.4779,1059.6432
62.4999,1082.5109
62.5219,1060.0352
62.5439,1013.3592
62.5659,1073.1774
62.5879,1079.1681
62.6099,1062.407
62.6319,1106.5642
62.6539,1167.3425
62.6759,1153.2275
62.6979,1148.2537
62.7199,1186.0371
62.7419,1201.2203
62.7639,1152.4796
62.7859,1122.991
62.8079,1207.967
62.8299,1209.0108
62.8519,1188.9837
62.8739,1177.9174
62.8959,1170.8533
62.9179,1131.2216
62.9399,1209.2146
62.9619,1159.3915
62.9839,1189.7342
63.0059,1124.2999
63.0279,1116.6008
63.0499,1115.242
63.0719,1130.139
63.0939,1122.9847
63.1159,1199.9349
63.1379,1167.2909
63.1599,1148.3471
63.1819,1149.0708
63.2039,1135.8857
63.2259,1108.2588
63.2479,1136.5412
63.2699,1124.8105
63.2919,1148.3769
63.3139,1122.3453
63.3359,1165.313
63.3579,1185.6977
63.3799,1127.5929
63.4019,1142.894
63.4239,1157.9476
63.4459,1131.3334
63.4679,1129.7554
63.4899,1091.8416
63.5119,1097.1404
63.5339,1119.9674
63.5559,1116.475
63.5779,1143.6196
63.5999,1164.5163
63.6219,1178.7917
63.6439,1210.3144
63.6659,1184.5501
63.6879,1118.1607
63.7099,1105.0767
63.7319,1136.0392
63.7539,1181.6245
63.7759,1172.8095
63.7979,1111.6004
63.8199,1145.0395
63.8419,1186.699
63.8639,1180.503
63.8859,1195.6874
63.9079,1200.2256
63.9299,1249.7143
63.9519,1255.2785
63.9739,1219.7786
63.9959,1203.8751
64.0179,1201
64.0399,1244.2378
64.0619,1293.777
64.0839,1278.7191
64.1059,1246.342
64.1279,1254.4303
64.1499,1229.754
64.1719,1236.4736
64.1939,1215.2043
64.2159,1226.6152
64.2379,1230.6726
64.2599,1246.5503
64.2819,1215.7825
64.3039,1233.0061
64.3259,1239.825
64.3479,1167.1574
64.3699,1215.8676
64.3919,1265.7834
64.4139,1232.6635
64.4359,1195.9748
64.4579,1262.9994
64.4799,1286.4873
64.5019,1254.7609
64.5239,1205.22
64.5459,1353.6626
64.5679,1489.7042
64.5899,1607.8069
64.6119,1832.5719
64.6339,2179.984
64.6559,2704.2899
64.6779,3052.2211
64.6999,3003.3269
64.7219,2594.6803
64.7439,2182.3086
64.7659,1962.2832
64.7879,1970.9856
64.8099,2035.0614
64.8319,2120.8923
64.8539,2101.4053
64.8759,1914.4779
64.8979,1576.6399
64.9199,1524.8845
64.9419,1437.4992
64.9639,1373.3803
64.9859,1351.0101
65.0079,1380.3997
65.0299,1292.7048
65.0519,1266.2282
65.0739,1292.787
65.0959,1319.8004
65.1179,1290.572
65.1399,1398.3507
65.1619,1481.6558
65.1839,1636.9556
65.2059,1715.6781
65.2279,1775.2917
65.2499,1678.1133
65.2719,1532.8735
65.2939,1457.6579
65.3159,1460.9754
65.3379,1450.1445
65.3599,1456.7037
65.3819,1463.8169
65.4039,1416.22
65.4259,1354.8699
65.4479,1311.7708
65.4699,1285.3636
65.4919,1192.5862
65.5139,1151.6071
65.5359,1168.4535
65.5579,1134.2211
65.5799,1142.9205
65.6019,1138.4855
65.6239,1129.3526
65.6459,1158.3729
65.6679,1172.7011
65.6899,1160.4335
65.7119,1173.9761
65.7339,1152.5267
65.7559,1134.3673
65.7779,1131.2743
65.7999,1116.3273
65.8219,1102.0707
65.8439,1066.366
65.8659,1113.3672
65.8879,1093.8625
65.9099,1095.008
65.9319,1101.1111
65.9539,1119.832
65.9759,1140.4426
65.9979,1118.4315
66.0199,1087.6296
66.0419,1098.241
66.0639,1127.6752
66.0859,1076.6132
66.1079,1053.9739
66.1299,1162.7686
66.1519,1121.6147
66.1739,1109.1426
66.1959,1130.743
66.2179,1161.3423
66.2399,1151.5855
66.2619,1130.055
66.2839,1094.0013
66.3059,1065.8583
66.3279,1044.1872
66.3499,1097.4782
66.3719,1166.7953
66.3939,1101.3566
66.4159,1040.4422
66.4379,1066.9213
66.4599,1051.8778
66.4819,1101.8525
66.5039,1096.1641
66.5259,1077.3786
66.5479,1080.2165
66.5699,1026.1347
66.5919,1017.0005
66.6139,1030.717
66.6359,1058.725
66.6579,1035.7152
66.6799,1093.4525
66.7019,1046.4869
66.7239,1088.0353
66.7459,1138.5131
66.7679,1102.9678
66.7899,1070.6837
66.8119,1121.127
66.8339,1145.1198
66.8559,1112.3621
66.8779,1061.4688
66.8999,1031.0521
66.9219,1037.0286
66.9439,1075.4873
66.9659,1135.7047
66.9879,1097.5024
67.0099,1074.1531
67.0319,1046.0931
67.0539,1074.4721
67.0759,1080.991
67.0979,1088.2659
67.1199,1106.5807
67.1419,1035.0882
67.1639,1007.8737
67.1859,1025.1073
67.2079,1017.7637
67.2299,991.711
67.2519,1030.3396
67.2739,1034.3772
67.2959,1003.8427
67.3179,1010.9863
67.3399,1027.2479
67.3619,1046.7326
67.3839,1041.8647
67.4059,1024.2684
67.4279,1000.8174
67.4499,997.125
67.4719,1021.478
67.4939,1048.2774
67.5159,1081.073
67.5379,1106.5311
67.5599,1100.9965
67.5819,1077.2545
67.6039,1086.3777
67.6259,1033.8166
67.6479,1043.8558
67.6699,1101.1271
67.6919,1083.4299
67.7139,1111.3504
67.7359,1144.7922
67.7579,1159.9086
67.7799,1107.9087
67.8019,1080.7964
67.8239,1123.9762
67.8459,1127.5014
67.8679,1112.9424
67.8899,1105.9193
67.9119,1080.1473
67.9339,1085.9293
67.9559,1077.7639
67.9779,1090.71
67.9999,1090.3672
68.0219,1091.7798
68.0439,1017.12
68.0659,1041.0061
68.0879,1047.707
68.1099,1017.0116
68.1319,1062.5666
68.1539,1037.0549
68.1759,1076.0125
68.1979,983.1204
68.2199,1000.0194
68.2419,1038.9105
68.2639,1030.42
68.2859,969.0747
68.3079,970.0564
68.3299,956.8323
68.3519,1029.7773
68.3739,1019.558
68.3959,940.3082
68.4179,943.1115
68.4399,1013.9021
68.4619,988.9583
68.4839,936.0992
68.5059,1000.1603
68.5279,989.7828
68.5499,937.1092
68.5719,950.8719
68.5939,994.54
68.6159,1012.8001
68.6379,979.8083
68.6599,984.8126
68.6819,974.5861
68.7039,989.3143
68.7259,986.3447
68.7479,931.0684
68.7699,958.7752
68.7919,998.1576
68.8139,993.606
68.8359,1029.8303
68.8579,1016.0737
68.8799,1028.1999
68.9019,1046.1207
68.9239,1038.9339
68.9459,1030.0753
68.9679,975.2345
68.9899,978.183
69.0119,993.4297
69.0339,992.171
69.0559,969.9733
69.0779,930.9673
69.0999,913.3821
69.1219,956.8145
69.1439,981.6656
69.1659,972
69.1879,985.5326
69.2099,997.5536
69.2319,1014.4107
69.2539,1022.3746
69.2759,968.8103
69.2979,950.2745
69.3199,975.7612
69.3419,961.7884
69.3639,952.4774
69.3859,986.2923
69.4079,997.0221
69.4299,941.9091
69.4519,978.9916
69.4739,963.5326
69.4959,1011.3442
69.5179,999.5395
69.5399,968.0269
69.5619,1025.0211
69.5839,980.4214
69.6059,983.245
69.6279,969.5348
69.6499,1007.1684
69.6719,1009.8829
69.6939,961.8561
69.7159,1004.6862
69.7379,1011.6057
69.7599,1006.6956
69.7819,1033.068
69.8039,999.811
69.8259,1049.7624
69.8479,1021.4187
69.8699,996.7865
69.8919,1029.5808
69.9139,1024.4247
69.9359,964.5297
69.9579,1002.8026
69.9799,1044.335
70.0019,1042.0118
70.0239,1076.6153
70.0459,1031.9088
70.0679,1074.7364
70.0899,1067.6785
70.1119,1076.2472
70.1339,987.1666
70.1559,1053.1262
70.1779,1017.224
70.1999,984.6275
70.2219,1023.8047
70.2439,1074.4286
70.2659,995.0842
70.2879,1094.0387
70.3099,1073.7963
70.3319,1058.774
70.3539,1081.5309
70.3759,1090.3723
70.3979,1165.3536
70.4199,1103.0303
70.4419,1095.8203
70.4639,1129.3912
70.4859,1119.0602
70.5079,1135.637
70.5299,1125.0602
70.5519,1148.3598
70.5739,1145.9972
70.5959,1166.2145
70.6179,1174.5358
70.6399,1156.3598
70.6619,1165.6994
70.6839,1162.2905
70.7059,1123.7525
70.7279,1215.2264
70.7499,1301.3816
70.7719,1392.5468
70.7939,1691.3839
70.8159,2121.1567
70.8379,2673.5613
70.8599,3589.7861
70.8819,4885.53
70.9039,6100.0054
70.9259,6588.5615
70.9479,5913.2328
70.9699,4507.6408
70.9919,3349.9682
71.0139,2838.7245
71.0359,2918.4206
71.0579,3283.0032
71.0799,3688.3336
71.1019,3799.5394
71.1239,3394.8733
71.1459,2635.426
71.1679,2038.9208
71.1899,1639.5171
71.2119,1399.4022
71.2339,1264.9817
71.2559,1208.1001
71.2779,1154.3359
71.2999,1123.0176
71.3219,1138.539
71.3439,1083.3506
71.3659,1050.6282
71.3879,1071.6531
71.4099,1048.4747
71.4319,1043.975
71.4539,1034.5053
71.4759,1041.8349
71.4979,994.0882
71.5199,973.026
71.5419,980.4209
71.5639,969.8377
71.5859,1021.7427
71.6079,1014.7069
71.6299,986.7373
71.6519,1030.813
71.6739,1005.2338
71.6959,1066.1464
71.7179,1052.8141
71.7399,1023.9551
71.7619,1016.1445
71.7839,1122.1063
71.8059,1107.681
71.8279,1028.4445
71.8499,1112.6631
71.8719,1001.5303
71.8939,1060.8938
71.9159,1053.5723
71.9379,979.2628
71.9599,1018.9897
71.9819,1033.9088
72.0039,1077.9165
72.0259,1074.8521
72.0479,1017.9401
72.0699,1091.1856
72.0919,1045.6325
72.1139,1010.1122
72.1359,1016.7988
72.1579,1022.2572
72.1799,1087.717
72.2019,1046.4504
72.2239,1055.1241
72.2459,1061.0163
72.2679,1033.3225
72.2899,1088.3007
72.3119,1045.955
72.3339,1045.9741
72.3559,1088.7869
72.3779,1034.0271
72.3999,1080.1806
72.4219,1028.5574
72.4439,1013.6849
72.4659,1053.3043
72.4879,1075.2031
72.5099,1033.1505
72.5319,1016.151
72.5539,1016.918
72.5759,1088.1944
72.5979,1095.0539
72.6199,1063.8626
72.6419,1031.87
72.6639,1019.383
72.6859,1029.4426
72.7079,1035.4921
72.7299,1064.6493
72.7519,1109.571
72.7739,1107.0234
72.7959,1120.4088
72.8179,1144.708
72.8399,1126.8066
72.8619,1100.5279
72.8839,1106.5488
72.9059,1153.1095
72.9279,1125.5374
72.9499,1121.7229
72.9719,1160.2485
72.9939,1151.635
73.0159,1167.5179
73.0379,1141.9269
73.0599,1148.954
73.0819,1164.7346
73.1039,1126.8989
73.1259,1172.0536
73.1479,1170.3892
73.1699,1192.1074
73.1919,1234.4658
73.2139,1202.8906
73.2359,1164.7029
73.2579,1188.1605
73.2799,1216.5134
73.3019,1178.1737
73.3239,1194.7086
73.3459,1192.0855
73.3679,1180.4808
73.3899,1263.445
73.4119,1271.2964
73.4339,1222.5857
73.4559,1252.2534
73.4779,1208.0971
73.4999,1185.993
73.5219,1210.9913
73.5439,1270.4959
73.5659,1229.5494
73.5879,1242.9932
73.6099,1254.543
73.6319,1301.6626
73.6539,1368.6725
73.6759,1359.5619
73.6979,1349.8416
73.7199,1334.0513
73.7419,1360.4278
73.7639,1366.1741
73.7859,1384.7094
73.8079,1438.4303
73.8299,1384.0052
73.8519,1419.8856
73.8739,1354.0969
73.8959,1296.9817
73.9179,1352.0227
73.9399,1355.7034
73.9619,1319.6161
73.9839,1266.9868
74.0059,1282.6226
74.0279,1300.9413
74.0499,1258.9221
74.0719,1220.2521
74.0939,1192.1227
74.1159,1158.754
74.1379,1145.4426
74.1599,1161.2763
74.1819,1144.1176
74.2039,1153.8312
74.2259,1213.4045
74.2479,1165.5711
74.2699,1165.4597
74.2919,1117.4287
74.3139,1102.4413
74.3359,1076.0692
74.3579,1085.1959
74.3799,1112
74.4019,1107.9115
74.4239,1104.3997
74.4459,1083.4933
74.4679,1068.8231
74.4899,1080.0069
74.5119,1041.2881
74.5339,1047.2984
74.5559,1056.8227
74.5779,1044.1575
74.5999,1040.4423
74.6219,1031.1544
74.6439,1036.7159
74.6659,1050.2302
74.6879,1017.6997
74.7099,985.4837
74.7319,973.3362
74.7539,1015.8677
74.7759,979.9827
74.7979,969.2657
74.8199,1009.2638
74.8419,1039.8025
74.8639,1051.9868
74.8859,1028.636
74.9079,1032.2656
74.9299,995.7902
74.9519,926.4062
74.9739,934.5371
74.9959,1002.5329
75.0179,1041.3561
75.0399,1013.7603
75.0619,1044.6817
75.0839,962.787
75.1059,1028.0645
75.1279,1026.6621
75.1499,1030.9774
75.1719,949.7443
75.1939,973.0769
75.2159,1036.9974
75.2379,975.742
75.2599,974.6682
75.2819,969.3244
75.3039,992.9554
75.3259,1001.7641
75.3479,1036.3979
75.3699,1017.0982
75.3919,959.3174
75.4139,1002.0197
75.4359,1002.4886
75.4579,987.177
75.4799,995.2409
75.5019,1064.2103
75.5239,1039.7566
75.5459,1034.104
75.5679,1006.4228
75.5899,1013.422
75.6119,1041.2149
75.6339,1056.1426
75.6559,1063.6595
75.6779,1102.1731
75.6999,1102.2327
75.7219,1048.3981
75.7439,1043.6907
75.7659,1101.649
75.7879,1106.2862
75.8099,1117.6137
75.8319,1153.8138
75.8539,1237.0887
75.8759,1258.611
75.8979,1301.4653
75.9199,1555.247
75.9419,1917.3325
75.9639,2403.9415
75.9859,2979.3465
76.0079,3011.5344
76.0299,2533.2317
76.0519,1891.32
76.0739,1541.1597
76.0959,1451.5507
76.1179,1475.0776
76.1399,1665.1125
76.1619,1872.0119
76.1839,1991.2436
76.2059,1893.9925
76.2279,1623.4266
76.2499,1439.6278
76.2719,1293.2013
76.2939,1126.0858
76.3159,1019.97
76.3379,1020.264
76.3599,1053.8073
76.3819,1021.7342
76.4039,987.6902
76.4259,970.054
76.4479,957.6238
76.4699,938.7589
76.4919,951.3896
76.5139,954.8524
76.5359,915.3812
76.5579,929.9403
76.5799,957.0665
76.6019,919.6299
76.6239,902.087
76.6459,956.0978
76.6679,985.2026
76.6899,943.3143
76.7119,971.6906
76.7339,952.9289
76.7559,951.2331
76.7779,953.2183
76.7999,958.5581
76.8219,1003.5401
76.8439,956.6987
76.8659,905.7795
76.8879,980.6309
76.9099,1014.8202
76.9319,951.1829
76.9539,970.0415
76.9759,982.9234
76.9979,974.0491
77.0199,967.4985
77.0419,931.69
77.0639,973.2505
77.0859,957.878
77.1079,953.1357
77.1299,951.0433
77.1519,960.9066
77.1739,963.0355
77.1959,974.1462
77.2179,920.79
77.2399,981.5704
77.2619,923
77.2839,922.8712
77.3059,922.0738
77.3279,938.9157
77.3499,974.1384
77.3719,932.4765
77.3939,947.0208
77.4159,970.4868
77.4379,982.6901
77.4599,963.6745
77.4819,959.7246
77.5039,945.2536
77.5259,935.188
77.5479,953.431
77.5699,928.3274
77.5919,918.6689
77.6139,895.4976
77.6359,904.3099
77.6579,929.6471
77.6799,933.4305
77.7019,906.6371
77.7239,904.2377
77.7459,913.454
77.7679,903.7496
77.7899,939.6116
77.8119,915.7956
77.8339,883.2036
77.8559,918.4945
77.8779,963.7739
77.8999,943.4864
77.9219,909.6834
77.9439,924.128
77.9659,928.4187
77.9879,925.4431
78.0099,938.53
78.0319,937.0354
78.0539,938.473
78.0759,962.7962
78.0979,974.1356
78.1199,1034.6227
78.1419,1062.2867
78.1639,1051.7937
78.1859,1115.446
78.2079,1089.1301
78.2299,1017.5042
78.2519,979.4226
78.2739,941.2997
78.2959,937.3364
78.3179,983.8096
78.3399,1028.9034
78.3619,1012.9997
78.3839,1032.9482
78.4059,1030.3361
78.4279,965.0128
78.4499,943.8633
78.4719,935.5343
78.4939,926.8171
78.5159,862.5251
78.5379,897.8451
78.5599,910.3362
78.5819,905.0521
78.6039,931.2637
78.6259,894.0351
78.6479,921.1905
78.6699,913.9025
78.6919,869.2991
78.7139,912.9365
78.7359,886.8508
78.7579,932.611
78.7799,912.8941
78.8019,1003.0744
78.8239,991.6547
78.8459,997.4966
78.8679,980.9114
78.8899,960.7668
78.9119,984.3487
78.9339,921.8806
78.9559,1024.8473
78.9779,908.8009
78.9999,980.3821
79.0219,912.2478
79.0439,919.8108
79.0659,939.1193
79.0879,983.0128
79.1099,920.7759
79.1319,939.5157
79.1539,930.5248
79.1759,892.6641
79.1979,890.3553
79.2199,927.0482
79.2419,866.6412
79.2639,885.147
79.2859,887.4014
79.3079,919.123
79.3299,935.9421
79.3519,936.9347
79.3739,876.5572
79.3959,859.349
79.4179,919.9294
79.4399,941.6136
79.4619,954.1555
79.4839,967.9556
79.5059,970.2659
79.5279,1006.0475
79.5499,975.7844
79.5719,935.2928
79.5939,910.0649
79.6159,910.8982
79.6379,904.0658
79.6599,921.0781
79.6819,956.7669
79.7039,942.0057
79.7259,947.2923
79.7479,961.9748
