Angle,Counts
8.1379,4861.2213
8.1599,4848.0437
8.1819,4707.2281
8.2039,4672.2257
8.2259,4725.2065
8.2479,4716.5246
8.2699,4771.3334
8.2919,4802.056
8.3139,4759.8495
8.3359,4690.2079
8.3579,4646
8.3799,4712.5531
8.4019,4724.0649
8.4239,4618.8564
8.4459,4586.5939
8.4679,4614.8319
8.4899,4730.5183
8.5119,4677.9788
8.5339,4608.1062
8.5559,4635.6893
8.5779,4644.2055
8.5999,4665.9027
8.6219,4559.4267
8.6439,4542.2345
8.6659,4533.1416
8.6879,4517.5909
8.7099,4565.4641
8.7319,4538.3672
8.7539,4538.2222
8.7759,4479.5845
8.7979,4576.1328
8.8199,4555.1209
8.8419,4550.6155
8.8639,4441.2212
8.8859,4540.9165
8.9079,4422.9257
8.9299,4473.7168
8.9519,4522.2011
8.9739,4411.7118
8.9959,4472.9514
9.0179,4541.9931
9.0399,4517.9356
9.0619,4471.3569
9.0839,4411.2714
9.1059,4383.6647
9.1279,4330.7035
9.1499,4457.8742
9.1719,4307.3053
9.1939,4334.4956
9.2159,4354.2822
9.2379,4328.9773
9.2599,4217.8614
9.2819,4339.1996
9.3039,4326.7035
9.3259,4312.2213
9.3479,4389.1292
9.3699,4251.0718
9.3919,4302.6711
9.4139,4296.1583
9.4359,4237.764
9.4579,4264.1976
9.4799,4294.7567
9.5019,4378.584
9.5239,4252.9469
9.5459,4186.4582
9.5679,4195.6505
9.5899,4204.8259
9.6119,4092.7424
9.6339,4137.3983
9.6559,4169.4351
9.6779,4105.2399
9.6999,4097.2154
9.7219,4152.239
9.7439,4187.2203
9.7659,4232.413
9.7879,4198.5058
9.8099,4116.7877
9.8319,4136.0767
9.8539,4144.8113
9.8759,4190.4454
9.8979,4123.586
9.9199,4147.1682
9.9419,4169.117
9.9639,4132.6047
9.9859,4145.4632
10.0079,4247.7478
10.0299,4228.6676
10.0519,4279.6727
10.0739,4353.8417
10.0959,4347.0694
10.1179,4345.9292
10.1399,4368.3776
10.1619,4454.5389
10.1839,4581.9647
10.2059,4620.9066
10.2279,4642.887
10.2499,4785.9647
10.2719,4818.9449
10.2939,4851.7955
10.3159,4768.8716
10.3379,4569.1513
10.3599,4332.2688
10.3819,4206.6371
10.4039,3990.8096
10.4259,3956.121
10.4479,3875.3377
10.4699,3839.9459
10.4919,3891.9165
10.5139,3830.6106
10.5359,3823.7871
10.5579,3852.5693
10.5799,3785.5899
10.6019,3824.5261
10.6239,3745.0555
10.6459,3797.6284
10.6679,3762.0211
10.6899,3669.6391
10.7119,3785.0089
10.7339,3758.0334
10.7559,3706.2905
10.7779,3643.761
10.7999,3721.797
10.8219,3735.532
10.8439,3662.2566
10.8659,3618.7335
10.8879,3679.0807
10.9099,3691.8053
10.9319,3634.3136
10.9539,3569.5713
10.9759,3650.3702
10.9979,3567.5349
11.0199,3584.5688
11.0419,3600.6992
11.0639,3660.6081
11.0859,3619.292
11.1079,3524.739
11.1299,3580.0482
11.1519,3657
11.1739,3635.7138
11.1959,3506.6402
11.2179,3571.0924
11.2399,3489.8334
11.2619,3545.5456
11.2839,3422.0762
11.3059,3444.6725
11.3279,3437.799
11.3499,3482.3254
11.3719,3382.5502
11.3939,3447.6028
11.4159,3436.7806
11.4379,3344.6372
11.4599,3379.8918
11.4819,3399.5448
11.5039,3447.9601
11.5259,3394.4799
11.5479,3451.2394
11.5699,3424.2744
11.5919,3455.0137
11.6139,3362.7698
11.6359,3299.8334
11.6579,3406.2183
11.6799,3477.2621
11.7019,3464.5929
11.7239,3343.698
11.7459,3314.9549
11.7679,3381.7655
11.7899,3362.1042
11.8119,3368.266
11.8339,3403.9204
11.8559,3350.8018
11.8779,3328.4032
11.8999,3363.0088
11.9219,3335.2124
11.9439,3295.0009
11.9659,3251.8259
11.9879,3299.1328
12.0099,3353.5497
12.0319,3380.7109
12.0539,3361.0639
12.0759,3332.1278
12.0979,3409.0443
12.1199,3575.1289
12.1419,3598.4346
12.1639,3527.7831
12.1859,3492.8771
12.2079,3422.9124
12.2299,3419.7522
12.2519,3417.2871
12.2739,3338.5653
12.2959,3312.2434
12.3179,3263.5575
12.3399,3357.5896
12.3619,3321.3451
12.3839,3366.8526
12.4059,3223.2899
12.4279,3275.1903
12.4499,3185.9802
12.4719,3332.7184
12.4939,3232.6459
12.5159,3135.5997
12.5379,3215.0758
12.5599,3351.6741
12.5819,3171.635
12.6039,3123.3525
12.6259,3296.0267
12.6479,3178.3052
12.6699,3169.1032
12.6919,3215.9381
12.7139,3352.653
12.7359,3247.641
12.7579,3104.9058
12.7799,3297.8643
12.8019,3256.0167
12.8239,3235.6652
12.8459,3301.7856
12.8679,3276.4557
12.8899,3184.646
12.9119,3181.6047
12.9339,3205.2056
12.9559,3341.4808
12.9779,3295.7247
12.9999,3280.6543
13.0219,3197.6991
13.0439,3181.4676
13.0659,3288.6047
13.0879,3309.8141
13.1099,3288.9665
13.1319,3252.0654
13.1539,3235.5516
13.1759,3264.469
13.1979,3265.232
13.2199,3221.3599
13.2419,3223.2419
13.2639,3283.1642
13.2859,3271.938
13.3079,3248.5079
13.3299,3305.6893
13.3519,3350.1151
13.3739,3346.1405
13.3959,3197.9419
13.4179,3187.5075
13.4399,3297.8943
13.4619,3346.4612
13.4839,3391.2168
13.5059,3397.2488
13.5279,3424.0133
13.5499,3456.8319
13.5719,3385.5048
13.5939,3349.417
13.6159,3455.6107
13.6379,3457.0973
13.6599,3459.1957
13.6819,3414.0707
13.7039,3485.5327
13.7259,3551.4444
13.7479,3494.5324
13.7699,3518.5487
13.7919,3594.7641
13.8139,3685.239
13.8359,3664.6179
13.8579,3647.2498
13.8799,3675.9646
13.9019,3741.5802
13.9239,3780.9926
13.9459,3872.1653
13.9679,4076.7096
13.9899,4180.9342
14.0119,4206.8761
14.0339,4386.6315
14.0559,4405.3849
14.0779,4531.1683
14.0999,4652.9214
14.1219,4822.0375
14.1439,4983.9411
14.1659,5133.0011
14.1879,5353.2121
14.2099,5568.7996
14.2319,5728.2228
14.2539,5863.421
14.2759,6180.6773
14.2979,6395.1486
14.3199,6545.0129
14.3419,6618.5812
14.3639,6444.4246
14.3859,6328.1012
14.4079,5905.0955
14.4299,5515.4805
14.4519,5029.8368
14.4739,4797.814
14.4959,4507.1202
14.5179,4333.3342
14.5399,4162.7991
14.5619,3851.3862
14.5839,3653.2916
14.6059,3683.3362
14.6279,3559.0652
14.6499,3392.5967
14.6719,3271.0841
14.6939,3273.5418
14.7159,3268.225
14.7379,3099.5899
14.7599,3062.9927
14.7819,3106.462
14.8039,2986.944
14.8259,3024.3402
14.8479,3002.8352
14.8699,2905.0354
14.8919,2908.2669
14.9139,2837.4986
14.9359,2878.295
14.9579,2836.4935
14.9799,2756.7827
15.0019,2762.0087
15.0239,2692.264
15.0459,2744.1299
15.0679,2783.6061
15.0899,2741.5497
15.1119,2759.6499
15.1339,2707.239
15.1559,2735.2798
15.1779,2729.0599
15.1999,2643.1666
15.2219,2615.2656
15.2439,2725.8039
15.2659,2789.5044
15.2879,2763.7325
15.3099,2741.4887
15.3319,2723.379
15.3539,2676.9774
15.3759,2674.8894
15.3979,2681.1652
15.4199,2618.7875
15.4419,2580.4278
15.4639,2620.2744
15.4859,2653.7768
15.5079,2644.8127
15.5299,2551.6842
15.5519,2552.6014
15.5739,2563.8957
15.5959,2534.5973
15.6179,2541.414
15.6399,2550.4995
15.6619,2528.4247
15.6839,2507.8559
15.7059,2523.1908
15.7279,2566.0281
15.7499,2575.1367
15.7719,2562.2193
15.7939,2619.1387
15.8159,2644
15.8379,2599.1346
15.8599,2574.0265
15.8819,2580.121
15.9039,2667.9608
15.9259,2595.7019
15.9479,2534.731
15.9699,2580.2193
15.9919,2574.9262
16.0139,2631.8693
16.0359,2658.384
16.0579,2733.1063
16.0799,2845.1304
16.1019,2832.6273
16.1239,2934.6432
16.1459,2868.0412
16.1679,2650.2712
16.1899,2671.1505
16.2119,2695.7222
16.2339,2453.0322
16.2559,2458.4735
16.2779,2529.6549
16.2999,2478.3387
16.3219,2352.1683
16.3439,2547.5628
16.3659,2466.464
16.3879,2351.6047
16.4099,2300.0374
16.4319,2338.0984
16.4539,2378.9292
16.4759,2355.4597
16.4979,2365.9411
16.5199,2404.1828
16.5419,2301.9764
16.5639,2272.6564
16.5859,2295.1711
16.6079,2259.3549
16.6299,2274.2814
16.6519,2414.6813
16.6739,2347.2644
16.6959,2327.3443
16.7179,2415.1328
16.7399,2420.6764
16.7619,2361.9311
16.7839,2355.4971
16.8059,2393.3696
16.8279,2300.7984
16.8499,2291.3187
16.8719,2381.8682
16.8939,2357.4247
16.9159,2298.7079
16.9379,2288.2548
16.9599,2308.6931
16.9819,2218.7669
17.0039,2236.8177
17.0259,2299.4228
17.0479,2306.6903
17.0699,2333.1003
17.0919,2340.6239
17.1139,2318.4719
17.1359,2250.7866
17.1579,2233.3785
17.1799,2243.4691
17.2019,2256.527
17.2239,2273.4327
17.2459,2272.5486
17.2679,2295.8221
17.2899,2337.8269
17.3119,2346.031
17.3339,2316.2939
17.3559,2258.9031
17.3779,2282.478
17.3999,2317.649
17.4219,2336.1318
17.4439,2415.6019
17.4659,2325.0578
17.4879,2307.5581
17.5099,2315.2419
17.5319,2292.7256
17.5539,2231.464
17.5759,2282.5945
17.5979,2276.6233
17.6199,2278.0836
17.6419,2250.5486
17.6639,2187.6155
17.6859,2220.9165
17.7079,2269.5502
17.7299,2271.0747
17.7519,2231.1735
17.7739,2215.4631
17.7959,2215.6588
17.8179,2252.1928
17.8399,2274.3717
17.8619,2173.9133
17.8839,2166.7857
17.9059,2231.2508
17.9279,2229.9685
17.9499,2232.6618
17.9719,2207.9513
17.9939,2144.8986
18.0159,2180.9971
18.0379,2118.3716
18.0599,2178.5212
18.0819,2231.4376
18.1039,2333.6221
18.1259,2079.4731
18.1479,2186.2247
18.1699,2234.8378
18.1919,2303.7718
18.2139,2255.7069
18.2359,2163.9558
18.2579,2186.4248
18.2799,2173.1937
18.3019,2196.0589
18.3239,2146.8854
18.3459,2128.9931
18.3679,2120.4278
18.3899,2179.8387
18.4119,2193.0576
18.4339,2256.469
18.4559,2220.196
18.4779,2151.9922
18.4999,2204.8731
18.5219,2195.2754
18.5439,2205.1852
18.5659,2092.3068
18.5879,2146.7224
18.6099,2240.651
18.6319,2226.4202
18.6539,2086.5672
18.6759,2035.8202
18.6979,2125.0001
18.7199,2174.0369
18.7419,2180.6529
18.7639,2207.5104
18.7859,2185.4502
18.8079,2149.9279
18.8299,2195.0264
18.8519,2132.7414
18.8739,2149.6914
18.8959,2169.5869
18.9179,2130.35
18.9399,2105.8529
18.9619,2145.0267
18.9839,2153.3189
19.0059,2089.9675
19.0279,2149.124
19.0499,2187.3903
19.0719,2153.7315
19.0939,2136.118
19.1159,2135.8343
19.1379,2118.8879
19.1599,2148.7671
19.1819,2134.9271
19.2039,2123.2488
19.2259,2181.124
19.2479,2173.1258
19.2699,2085.7511
19.2919,2053.9912
19.3139,2116.2961
19.3359,2125.6863
19.3579,2151.4012
19.3799,2148.8554
19.4019,2120.9272
19.4239,2069.4026
19.4459,2047.2389
19.4679,2161.0553
19.4899,2141.9173
19.5119,2152.7955
19.5339,2109.5751
19.5559,2064.4926
19.5779,2132.8979
19.5999,2080.344
19.6219,2017.7256
19.6439,2082.2572
19.6659,2116.7277
19.6879,2170.5266
19.7099,2141.9498
19.7319,2126.1568
19.7539,2179.475
19.7759,2142.8338
19.7979,2077.4394
19.8199,2213.2259
19.8419,2100.3587
19.8639,2098.9695
19.8859,2109.9676
19.9079,2099.2149
19.9299,2121.2861
19.9519,2092.6978
19.9739,2195.3195
19.9959,2137.9523
20.0179,2106.2036
20.0399,2123.911
20.0619,2145.5723
20.0839,2145.9395
20.1059,2107.5989
20.1279,2135.7193
20.1499,2156.2508
20.1719,2224.0173
20.1939,2272.521
20.2159,2166.8186
20.2379,2173.1672
20.2599,2208.562
20.2819,2209.9173
20.3039,2126.4709
20.3259,2111.0729
20.3479,2193.2065
20.3699,2206.1504
20.3919,2159.1608
20.4139,2141.23
20.4359,2132.8241
20.4579,2209.2321
20.4799,2249.6948
20.5019,2282.0108
20.5239,2257.121
20.5459,2281.4839
20.5679,2348.0021
20.5899,2381.4336
20.6119,2292.3936
20.6339,2245.3994
20.6559,2311.4179
20.6779,2331.8231
20.6999,2323.9871
20.7219,2286.7512
20.7439,2311.1078
20.7659,2306.3254
20.7879,2262.4872
20.8099,2234.4424
20.8319,2215.0511
20.8539,2203.6293
20.8759,2208.9543
20.8979,2194.4404
20.9199,2127.5963
20.9419,2112.7847
20.9639,2108.0206
20.9859,2107.0089
21.0079,2129.5974
21.0299,2152.3599
21.0519,2167.1333
21.0739,2144.5693
21.0959,2092.6356
21.1179,2156.9274
21.1399,2171.2802
21.1619,2158.1603
21.1839,2161.3333
21.2059,2170.3451
21.2279,2190.1765
21.2499,2216.4956
21.2719,2241.5133
21.2939,2202.3303
21.3159,2163.733
21.3379,2271.7731
21.3599,2107.8114
21.3819,2107.6422
21.4039,2060.2211
21.4259,2013.1307
21.4479,2055.7041
21.4699,2194.4191
21.4919,2169.968
21.5139,2145.055
21.5359,2184.3496
21.5579,2143.3038
21.5799,2127.735
21.6019,2106.9292
21.6239,2192.156
21.6459,2203.823
21.6679,2195.0664
21.6899,2111.718
21.7119,2253.214
21.7339,2041.248
21.7559,2178.5343
21.7779,2125.4072
21.7999,2188.5842
21.8219,2235.6174
21.8439,2199.3653
21.8659,2230.8318
21.8879,2212.9243
21.9099,2211.5633
21.9319,2171.6551
21.9539,2255.9191
21.9759,2149.1758
21.9979,2263.46
22.0199,2152.4857
22.0419,2156.4819
22.0639,2212.329
22.0859,2256.406
22.1079,2208.6395
22.1299,2149.2478
22.1519,2171.4618
22.1739,2225.1327
22.1959,2177.9469
22.2179,2165.7975
22.2399,2184.9366
22.2619,2188.2979
22.2839,2201.1033
22.3059,2249.2745
22.3279,2256.8302
22.3499,2184.473
22.3719,2238.6816
22.3939,2342.4338
22.4159,2387.9159
22.4379,2380.4563
22.4599,2384.1681
22.4819,2410.2391
22.5039,2455.9194
22.5259,2457.944
22.5479,2434.3023
22.5699,2447.2282
22.5919,2493.6151
22.6139,2521.3668
22.6359,2544.2006
22.6579,2579.1977
22.6799,2641.713
22.7019,2715.6245
22.7239,2727.2787
22.7459,2770.4888
22.7679,2810.3928
22.7899,2846.5488
22.8119,2957.4466
22.8339,3046.9991
22.8559,3066.031
22.8779,3182.6797
22.8999,3411.2315
22.9219,3586.6639
22.9439,3565.5043
22.9659,3676.8174
22.9879,3835.4029
23.0099,4035.8391
23.0319,4220.2943
23.0539,4282.708
23.0759,4417.577
23.0979,4438.1691
23.1199,4554.5755
23.1419,4529.3195
23.1639,4526.941
23.1859,4372.628
23.2079,4372.855
23.2299,4401.3629
23.2519,4272.485
23.2739,4162.343
23.2959,4227.684
23.3179,4113.4629
23.3399,4107.5605
23.3619,3930.5218
23.3839,3904.7301
23.4059,4006.1437
23.4279,3963.1563
23.4499,3873.0618
23.4719,3990.9531
23.4939,3894.3508
23.5159,3766.9498
23.5379,3769.4092
23.5599,3889.3065
23.5819,3992.6544
23.6039,3734.3801
23.6259,3792.8939
23.6479,3830.3436
23.6699,3799.2223
23.6919,3824.5276
23.7139,3873.2507
23.7359,3846.5517
23.7579,3859.9478
23.7799,3812.1282
23.8019,3766.1003
23.8239,3799.7031
23.8459,3790.7667
23.8679,3662.2041
23.8899,3669.9379
23.9119,3643.6124
23.9339,3777.8791
23.9559,3793.0634
23.9779,3835.717
23.9999,3916.2955
24.0219,3949.3158
24.0439,4082.8115
24.0659,4243.9058
24.0879,4441.0321
24.1099,4832.1334
24.1319,5306.2272
24.1539,6040.0871
24.1759,7142.3651
24.1979,8766.3887
24.2199,11161.5536
24.2419,14117.8338
24.2639,15752.2812
24.2859,14595.4865
24.3079,11957.839
24.3299,9173.2303
24.3519,6755.1584
24.3739,5180.0512
24.3959,4439.465
24.4179,4233.7885
24.4399,4140.5027
24.4619,4131.5016
24.4839,4035.4519
24.5059,3763.0172
24.5279,3666.1613
24.5499,3598.806
24.5719,3582.593
24.5939,3496.9613
24.6159,3412.4508
24.6379,3436.5517
24.6599,3369.3169
24.6819,3342.9125
24.7039,3413.6801
24.7259,3387.3155
24.7479,3326.1912
24.7699,3273.2654
24.7919,3362.3139
24.8139,3352.4847
24.8359,3359.1136
24.8579,3254.4245
24.8799,3284.1825
24.9019,3249.0382
24.9239,3234.3766
24.9459,3283.4396
24.9679,3247.168
24.9899,3295.7032
25.0119,3127.8005
25.0339,3104.2389
25.0559,3195.3158
25.0779,3101.0667
25.0999,3163.6226
25.1219,3185.7572
25.1439,3089.8002
25.1659,3077.3186
25.1879,3115.3678
25.2099,3038.3096
25.2319,3116.6698
25.2539,3004.4482
25.2759,3079.6123
25.2979,2917.1683
25.3199,3021.2188
25.3419,3057.2262
25.3639,3068.04
25.3859,3150.9426
25.4079,2940.12
25.4299,2982.6462
25.4519,3068.9093
25.4739,3197.9403
25.4959,3357.4632
25.5179,3421.1676
25.5399,3649.6247
25.5619,3845.8856
25.5839,4185.1478
25.6059,4367.1559
25.6279,4573.7034
25.6499,4453.4942
25.6719,4239.0236
25.6939,3949.1588
25.7159,3650.5418
25.7379,3365.1844
25.7599,3134.8095
25.7819,3030.1789
25.8039,2999.0127
25.8259,2960
25.8479,3016.4035
25.8699,3190.5175
25.8919,3394.2424
25.9139,3648.2817
25.9359,3811.8044
25.9579,3703.787
25.9799,3439.9122
26.0019,3235.9927
26.0239,3046.5381
26.0459,2921.7264
26.0679,2863.6402
26.0899,2924.7347
26.1119,2917.9334
26.1339,2935.7426
26.1559,2922.9997
26.1779,2869.7867
26.1999,2823.3616
26.2219,2779.3069
26.2439,2912.9315
26.2659,2874.8649
26.2879,2804.4087
26.3099,2843.4091
26.3319,2861.5816
26.3539,2822.0353
26.3759,2745.4128
26.3979,2743.949
26.4199,2667.4083
26.4419,2679.0198
26.4639,2769.4707
26.4859,2795.2625
26.5079,2745.9305
26.5299,2738.47
26.5519,2760.5885
26.5739,2811.7454
26.5959,2766.8425
26.6179,2859.7171
26.6399,2901.3928
26.6619,2820.0342
26.6839,2860.599
26.7059,2913.3275
26.7279,2920.3609
26.7499,2918.3363
26.7719,2882.5456
26.7939,3059.2787
26.8159,3088.2625
26.8379,3073.0226
26.8599,3090.6529
26.8819,3036.8524
26.9039,2854.7636
26.9259,2835.2792
26.9479,2941.5002
26.9699,2983.3265
26.9919,3098.1462
27.0139,3165.6579
27.0359,2973.6294
27.0579,2906.937
27.0799,2888.4525
27.1019,2735.5399
27.1239,2781.7972
27.1459,2636.9027
27.1679,2659.4083
27.1899,2751.3107
27.2119,2752.0309
27.2339,2715.0461
27.2559,2664.1954
27.2779,2768.496
27.2999,2956.3832
27.3219,3054.957
27.3439,3234.3193
27.3659,3560.3701
27.3879,3767.6802
27.4099,3874.9645
27.4319,3793.3645
27.4539,3595.5933
27.4759,3304.0557
27.4979,3142.5356
27.5199,2982.6869
27.5419,2824.2654
27.5639,2741.0184
27.5859,2667.3158
27.6079,2702.7049
27.6299,2677.7926
27.6519,2700.5609
27.6739,2732.5667
27.6959,2837.351
27.7179,2851.068
27.7399,3000.474
27.7619,3297.2563
27.7839,3483.9325
27.8059,3400.162
27.8279,3305.4645
27.8499,3208.5739
27.8719,3052.5705
27.8939,2967.3481
27.9159,2923.787
27.9379,2961.31
27.9599,2998.8627
27.9819,2983.4475
28.0039,3034.7523
28.0259,3134.0848
28.0479,3141.4108
28.0699,3118.4956
28.0919,3184.0189
28.1139,3328.0908
28.1359,3459.5887
28.1579,3522.358
28.1799,3598.5548
28.2019,3596.0589
28.2239,3634.6378
28.2459,3606.579
28.2679,3552.5221
28.2899,3451.0096
28.3119,3418.7498
28.3339,3293.6899
28.3559,3141.6541
28.3779,3091.3962
28.3999,2946.8138
28.4219,2951.5547
28.4439,2907.8514
28.4659,2909.1829
28.4879,2893.1258
28.5099,2924.6815
28.5319,2909.0044
28.5539,2938.4288
28.5759,2966.3004
28.5979,3060.7524
28.6199,3082.8894
28.6419,3109.7778
28.6639,3175.1816
28.6859,3205.7503
28.7079,3371.8602
28.7299,3385
28.7519,3509.4954
28.7739,3531.4022
28.7959,3680.1891
28.8179,3938.7026
28.8399,4018.9623
28.8619,4030.5522
28.8839,4332.8185
28.9059,4537.5689
28.9279,4792.2169
28.9499,4823.194
28.9719,4924.1103
28.9939,4787.6221
29.0159,4661.2059
29.0379,4584.6218
29.0599,4313.0839
29.0819,4217.213
29.1039,4036.2435
29.1259,3876.0704
29.1479,3687.3912
29.1699,3620.4059
29.1919,3532.9233
29.2139,3523.5681
29.2359,3397.1988
29.2579,3318.3336
29.2799,3403.528
29.3019,3395.3933
29.3239,3390.9381
29.3459,3373.4176
29.3679,3309.4982
29.3899,3332.7756
29.4119,3257.5132
29.4339,3236.3137
29.4559,3264.6506
29.4779,3265.7775
29.4999,3182.321
29.5219,3178.0797
29.5439,3209.2493
29.5659,3177.8424
29.5879,3126.7744
29.6099,3169.6334
29.6319,3167.4089
29.6539,3114.5516
29.6759,3185.9827
29.6979,3295.887
29.7199,3242.7298
29.7419,3203.7169
29.7639,3259.7553
29.7859,3193.7637
29.8079,3078.8794
29.8299,3084.3669
29.8519,3150.2833
29.8739,3166.879
29.8959,3096.1045
29.9179,2991.6192
29.9399,2872.3999
29.9619,2806.0884
29.9839,2707.867
30.0059,2660.6037
30.0279,2608.2786
30.0499,2516.8258
30.0719,2563.0347
30.0939,2638.6058
30.1159,2527.0571
30.1379,2456.8829
30.1599,2493.4814
30.1819,2504.5044
30.2039,2500.7153
30.2259,2556.4908
30.2479,2587.1505
30.2699,2572.6361
30.2919,2653.9363
30.3139,2613.0972
30.3359,2567.4232
30.3579,2629.655
30.3799,2665.2169
30.4019,2584.399
30.4239,2628.6058
30.4459,2664.6962
30.4679,2753.4506
30.4899,2794.2469
30.5119,2738.1813
30.5339,2793.5931
30.5559,2883.2391
30.5779,2888.941
30.5999,2980.3999
30.6219,3035.7346
30.6439,3166.7746
30.6659,3274.5796
30.6879,3459.8392
30.7099,3686.824
30.7319,4152.1475
30.7539,4770.1415
30.7759,4758.2231
30.7979,4926.5894
30.8199,5135.329
30.8419,5497.4802
30.8639,6576.5107
30.8859,7994.9323
30.9079,10527.048
30.9299,14430.4062
30.9519,19717.6023
30.9739,27230.7743
30.9959,37051.3817
31.0179,44928.2762
31.0399,45695.0859
31.0619,37858.4901
31.0839,29029.8618
31.1059,23355.2774
31.1279,16380.8712
31.1499,9574.4249
31.1719,6367.1072
31.1939,5100.5315
31.2159,4489.2009
31.2379,4034.6246
31.2599,3759.5985
31.2819,3627.4314
31.3039,3458.7428
31.3259,3247.9721
31.3479,3140.3938
31.3699,3121.3716
31.3919,3102.8505
31.4139,3114.5015
31.4359,3102.3583
31.4579,3082.0915
31.4799,3068.906
31.5019,3087.6993
31.5239,3112.051
31.5459,3037.9369
31.5679,2946.4467
31.5899,2856.2338
31.6119,2704.3634
31.6339,2558.513
31.6559,2544.7838
31.6779,2567
31.6999,2550.8716
31.7219,2532.6843
31.7439,2468.9167
31.7659,2524.3278
31.7879,2630.6605
31.8099,2676.4701
31.8319,2744.0563
31.8539,2870.0406
31.8759,3008.9162
31.8979,3166.1066
31.9199,3175.8263
31.9419,3324.3584
31.9639,3530.7335
31.9859,3736.969
32.0079,3841.629
32.0299,3798.5898
32.0519,3731.9777
32.0739,3383.5811
32.0959,3208.8626
32.1179,3049.2435
32.1399,2830.4439
32.1619,2694.9112
32.1839,2599.9024
32.2059,2604.7208
32.2279,2664.1093
32.2499,2772.3179
32.2719,2914.1188
32.2939,3050.5136
32.3159,3207.815
32.3379,3342.9
32.3599,3298.7639
32.3819,3472.1282
32.4039,3930.7135
32.4259,4213.0177
32.4479,4224.1522
32.4699,4573.3278
32.4919,5167.4435
32.5139,5577.7331
32.5359,5361.6302
32.5579,4910.9934
32.5799,4656.528
32.6019,4991.972
32.6239,4709.7969
32.6459,3701.1238
32.6679,3324.5591
32.6899,3306.2116
32.7119,2982.7641
32.7339,2683.2508
32.7559,2715.8674
32.7779,2776.7476
32.7999,2873.405
32.8219,2818.3066
32.8439,2761.3987
32.8659,2730.8592
32.8879,2642.3317
32.9099,2569.2457
32.9319,2500.2947
32.9539,2402.1268
32.9759,2394.5511
32.9979,2347.6869
33.0199,2229.2772
33.0419,2190.8101
33.0639,2149.4679
33.0859,2106.2477
33.1079,2086.0718
33.1299,2088.2261
33.1519,2100.3423
33.1739,2143.359
33.1959,2135.3489
33.2179,2105.5901
33.2399,2116.3033
33.2619,2114.9302
33.2839,2075.8051
33.3059,2044.2676
33.3279,2005.6806
33.3499,1945.4425
33.3719,1979.0769
33.3939,1947.4678
33.4159,1888.8835
33.4379,1940.8341
33.4599,1955.549
33.4819,1905.9468
33.5039,1901.7356
33.5259,1900.8849
33.5479,1915.4131
33.5699,1863.1492
33.5919,1950.0231
33.6139,1966.9998
33.6359,1850.6614
33.6579,1899.6277
33.6799,1919.8937
33.7019,1868.7658
33.7239,1942.2874
33.7459,1950.0855
33.7679,1886.0524
33.7899,1905.4849
33.8119,1861.8125
33.8339,1879.9519
33.8559,1937.9141
33.8779,1856.3714
33.8999,1868.8846
33.9219,1891.9361
33.9439,1964.7849
33.9659,1921.7471
33.9879,1890.234
34.0099,1972.2392
34.0319,1884.8783
34.0539,1850.2753
34.0759,1883.1417
34.0979,1940.3502
34.1199,2004.7593
34.1419,2082.0474
34.1639,1872.6799
34.1859,1941.954
34.2079,2054.8351
34.2299,1880.0494
34.2519,1975.7227
34.2739,1960.7077
34.2959,1874.1477
34.3179,1933.641
34.3399,1876.4467
34.3619,1824.2578
34.3839,1887.0603
34.4059,1847.658
34.4279,1891.9206
34.4499,1819.8024
34.4719,1831.5709
34.4939,1865.8839
34.5159,1848.0945
34.5379,1861.4158
34.5599,1843.1255
34.5819,1869.9123
34.6039,1809.5267
34.6259,1853.3038
34.6479,1841.7148
34.6699,1835.5843
34.6919,1881.3681
34.7139,1841.4986
34.7359,1883.3378
34.7579,1932.4978
34.7799,1975.3715
34.8019,1924.9027
34.8239,1955.9096
34.8459,1946.7324
34.8679,1912.5886
34.8899,1936
34.9119,1931.2979
34.9339,1886.0116
34.9559,1835.4135
34.9779,1875.5823
34.9999,1930.9071
35.0219,1906.5632
35.0439,1932.0973
35.0659,2041.3276
35.0879,2116.0563
35.1099,2111.7392
35.1319,2030.6886
35.1539,2022.4465
35.1759,1959.1786
35.1979,1936.7849
35.2199,1945.8042
35.2419,1959.7248
35.2639,1941.2741
35.2859,1944.8458
35.3079,1898.7219
35.3299,1865.6313
35.3519,1828.639
35.3739,1802.0501
35.3959,1837.4234
35.4179,1867.4671
35.4399,1866.1317
35.4619,1963.6729
35.4839,2102.3288
35.5059,2140.2763
35.5279,2089.2166
35.5499,2038.0756
35.5719,2024.7183
35.5939,1971.4452
35.6159,1941.0821
35.6379,1856.4579
35.6599,1787.4158
35.6819,1780.9322
35.7039,1747.7929
35.7259,1706.289
35.7479,1714.6013
35.7699,1754.4613
35.7919,1737.0294
35.8139,1762.6648
35.8359,1725.137
35.8579,1803.8321
35.8799,1782.0879
35.9019,1861.2647
35.9239,1879.4012
35.9459,1813.1031
35.9679,1876.7814
35.9899,1861.1002
36.0119,1844.6739
36.0339,1792.2249
36.0559,1698.0397
36.0779,1671.894
36.0999,1754.8887
36.1219,1703.2891
36.1439,1715.2299
36.1659,1646.8741
36.1879,1631.5503
36.2099,1676.3087
36.2319,1663.3704
36.2539,1709.0353
36.2759,1681.4606
36.2979,1657.6794
36.3199,1650.456
36.3419,1733.7869
36.3639,1816.7769
36.3859,1846.8494
36.4079,1831.9332
36.4299,1954.3684
36.4519,1879.8364
36.4739,1888.633
36.4959,1809.5794
36.5179,1753.3127
36.5399,1744.5338
36.5619,1706.9223
36.5839,1706.475
36.6059,1730.4268
36.6279,1737.3913
36.6499,1737.885
36.6719,1736.3681
36.6939,1695.8013
36.7159,1667.6134
36.7379,1663.8959
36.7599,1700.1214
36.7819,1698.6342
36.8039,1676.3917
36.8259,1698.427
36.8479,1787.2967
36.8699,1911.6337
36.8919,2150.3951
36.9139,2416.7617
36.9359,2666.6748
36.9579,2949.9841
36.9799,2972.4655
37.0019,2746.1626
37.0239,2535.3638
37.0459,2357.7075
37.0679,2190.9853
37.0899,2012.1814
37.1119,1796.8032
37.1339,1680.8711
37.1559,1672.3919
37.1779,1622.401
37.1999,1545.0819
37.2219,1524.412
37.2439,1613.5313
37.2659,1606.046
37.2879,1588.4386
37.3099,1610.947
37.3319,1580.3194
37.3539,1561.707
37.3759,1599.9588
37.3979,1645.5714
37.4199,1665.3093
37.4419,1717.9294
37.4639,1623.7115
37.4859,1604.1495
37.5079,1560.3642
37.5299,1587.0335
37.5519,1581.732
37.5739,1561.5398
37.5959,1577.7183
37.6179,1589.0364
37.6399,1565.2698
37.6619,1576.9233
37.6839,1556.3682
37.7059,1585.4898
37.7279,1576.3839
37.7499,1491.9447
37.7719,1640.4311
37.7939,1608.0236
37.8159,1619.3298
37.8379,1573.239
37.8599,1579.5918
37.8819,1523.0169
37.9039,1581.6638
37.9259,1616.4571
37.9479,1556.2476
37.9699,1512.1152
37.9919,1550.4565
38.0139,1495.9952
38.0359,1524.9645
38.0579,1482.9645
38.0799,1457.412
38.1019,1446.6107
38.1239,1480.4285
38.1459,1574.1986
38.1679,1581.9603
38.1899,1615.1427
38.2119,1619.7471
38.2339,1539.6282
38.2559,1499.9012
38.2779,1519.7159
38.2999,1527.0588
38.3219,1499.4721
38.3439,1504.8788
38.3659,1470.9353
38.3879,1508.3264
38.4099,1501.769
38.4319,1550.0092
38.4539,1639.6038
38.4759,1620.0199
38.4979,1600.6434
38.5199,1676.8909
38.5419,1670.9842
38.5639,1627.9349
38.5859,1582.9999
38.6079,1555.2113
38.6299,1520.7698
38.6519,1488.4109
38.6739,1447.3833
38.6959,1436.2243
38.7179,1450.3363
38.7399,1460.3231
38.7619,1457.2595
38.7839,1424.0176
38.8059,1432.3964
38.8279,1443.4646
38.8499,1422.0176
38.8719,1391.0604
38.8939,1461.847
38.9159,1527.2051
38.9379,1496.5337
38.9599,1467.1593
38.9819,1423.0588
39.0039,1454.5263
39.0259,1470.7168
39.0479,1471.2154
39.0699,1442.2614
39.0919,1444.5428
39.1139,1418.9438
39.1359,1407.2483
39.1579,1354.283
39.1799,1406.3149
39.2019,1414.9596
39.2239,1404.792
39.2459,1407.0659
39.2679,1384.0614
39.2899,1430.9412
39.3119,1423.999
39.3339,1407.2025
39.3559,1460.9766
39.3779,1411.3499
39.3999,1449.86
39.4219,1455.9115
39.4439,1423.6671
39.4659,1385.4286
39.4879,1401.0192
39.5099,1475.9717
39.5319,1505.27
39.5539,1452.7963
39.5759,1522.8257
39.5979,1589.8492
39.6199,1475.9693
39.6419,1560.7628
39.6639,1497.7197
39.6859,1488.047
39.7079,1432.842
39.7299,1532.0746
39.7519,1505.1772
39.7739,1545.5632
39.7959,1493.1046
39.8179,1602.9997
39.8399,1509.3511
39.8619,1545.3837
39.8839,1590.9925
39.9059,1560.1911
39.9279,1629.1827
39.9499,1580.9558
39.9719,1611.8143
39.9939,1645.4502
40.0159,1616.0265
40.0379,1617.6018
40.0599,1637.9666
40.0819,1641.5869
40.1039,1636.5185
40.1259,1698.3577
40.1479,1666.7583
40.1699,1717.8467
40.1919,1768.602
40.2139,1822.0178
40.2359,1793.4422
40.2579,1730.2999
40.2799,1736.264
40.3019,1773.5244
40.3239,1790.5479
40.3459,1767.779
40.3679,1821.44
40.3899,1826.5231
40.4119,1841.2921
40.4339,1917.3347
40.4559,1948.8867
40.4779,1917.531
40.4999,1942.8993
40.5219,1988.0375
40.5439,2051.5312
40.5659,2050.6134
40.5879,2048.6432
40.6099,2134.3012
40.6319,2171.6622
40.6539,2198.3886
40.6759,2336.4622
40.6979,2448.9609
40.7199,2478.7301
40.7419,2543.0032
40.7639,2617.6595
40.7859,2640.3471
40.8079,2703.4118
40.8299,2705.4709
40.8519,2655.637
40.8739,2633.4955
40.8959,2598.6596
40.9179,2564.581
40.9399,2455.9745
40.9619,2448.7002
40.9839,2499.9136
41.0059,2400.4951
41.0279,2367.1475
41.0499,2279.7902
41.0719,2259.3333
41.0939,2280.9863
41.1159,2212.9348
41.1379,2205.351
41.1599,2136.2825
41.1819,2188.7406
41.2039,2098.0351
41.2259,2109.1456
41.2479,2098.8884
41.2699,2138.5901
41.2919,2170.6437
41.3139,2194.2764
41.3359,2104.7637
41.3579,2089.0963
41.3799,2185.6753
41.4019,2124.6723
41.4239,2052.9796
41.4459,2115.816
41.4679,2085.9984
41.4899,2030.7904
41.5119,1991.8577
41.5339,2056.7993
41.5559,2026.9711
41.5779,2041.3313
41.5999,2017.407
41.6219,1997.0778
41.6439,2009.4619
41.6659,1971.2218
41.6879,2109.654
41.7099,2013.3578
41.7319,1989.2434
41.7539,2006.2144
41.7759,1998.8406
41.7979,1999.9119
41.8199,2080.1921
41.8419,2084.0014
41.8639,2166.7976
41.8859,2102.8978
41.9079,2141.1345
41.9299,2200.1239
41.9519,2224.9231
41.9739,2253.6339
41.9959,2217.1684
42.0179,2247.7167
42.0399,2205.905
42.0619,2149.221
42.0839,2104.7656
42.1059,2129.2203
42.1279,2077.504
42.1499,2008.4239
42.1719,2008.1577
42.1939,1993.3452
42.2159,2003.3303
42.2379,1966.46
42.2599,1962.8291
42.2819,1953.2898
42.3039,1889.9182
42.3259,1864.9321
42.3479,1908.7898
42.3699,1955.4946
42.3919,1929.8936
42.4139,1919.5773
42.4359,1873.4387
42.4579,1898.198
42.4799,1949.5394
42.5019,2002.1546
42.5239,2053.4927
42.5459,2143.8499
42.5679,2265.6336
42.5899,2640.5768
42.6119,3194.4959
42.6339,4196.0214
42.6559,5519.0324
42.6779,6800.8869
42.6999,6836.336
42.7219,5483.446
42.7439,4680.4575
42.7659,4506.9772
42.7879,4486.4557
42.8099,3666.1924
42.8319,2733.6746
42.8539,2201.7921
42.8759,2029.2617
42.8979,2006.7325
42.9199,1884.7901
42.9419,1872.1465
42.9639,1875.6711
42.9859,1912.1063
43.0079,1797.0566
43.0299,1834.2165
43.0519,1732.7725
43.0739,1834.5077
43.0959,1826.5024
43.1179,1797.6843
43.1399,1906.7452
43.1619,1792.0937
43.1839,1888.1551
43.2059,1971.9801
43.2279,1899.1646
43.2499,2005.1505
43.2719,2001.1938
43.2939,1907.0711
43.3159,2001.9526
43.3379,1942.4452
43.3599,1880.3215
43.3819,1862.3452
43.4039,1883.4124
43.4259,1850.2219
43.4479,1751.2669
43.4699,1735.4424
43.4919,1733.0045
43.5139,1736.8168
43.5359,1689.4517
43.5579,1777.6665
43.5799,1725.5706
43.6019,1731.8934
43.6239,1844.4264
43.6459,1773.2834
43.6679,1822.3899
43.6899,1820.9054
43.7119,1796.714
43.7339,1822.0383
43.7559,1836.3094
43.7779,1862.7876
43.7999,1854.5743
43.8219,1891.3169
43.8439,1933.4498
43.8659,1901.0451
43.8879,1897.3625
43.9099,1889.3684
43.9319,1874.3926
43.9539,1886.4274
43.9759,1871.7392
43.9979,1954.5076
44.0199,1991.677
44.0419,2015.0798
44.0639,2026.8327
44.0859,2069.9965
44.1079,2089.4644
44.1299,2034.2447
44.1519,1984.5254
44.1739,1961.1328
44.1959,1982.832
44.2179,1992.6814
44.2399,1938.9304
44.2619,1886.3027
44.2839,1882.1618
44.3059,1770.4979
44.3279,1791.7708
44.3499,1871.8999
44.3719,1796.9287
44.3939,1830.2
44.4159,1817.2928
44.4379,1787.7197
44.4599,1810.1417
44.4819,1839.9381
44.5039,1861.2641
44.5259,1833.1896
44.5479,1866.4181
44.5699,1881.3628
44.5919,1875.6008
44.6139,1884.5585
44.6359,1859.7919
44.6579,1889.9815
44.6799,1994.643
44.7019,1996.4955
44.7239,1985.2635
44.7459,1943.2466
44.7679,2072.735
44.7899,2083.4474
44.8119,2112.5301
44.8339,2169.2362
44.8559,2161.6312
44.8779,2147.5644
44.8999,2163.5237
44.9219,2194.5124
44.9439,2159.1238
44.9659,2227.5835
44.9879,2069.7823
45.0099,2108.6079
45.0319,2180.0218
45.0539,2102.1635
45.0759,2186.2812
45.0979,2190.4956
45.1199,2195.5255
45.1419,2168.0632
45.1639,1970.0706
45.1859,1920.9765
45.2079,1937.3133
45.2299,1948.7137
45.2519,1892.1954
45.2739,1839.066
45.2959,1840.3595
45.3179,1758.2204
45.3399,1772.3581
45.3619,1707.6194
45.3839,1733.2979
45.4059,1808.1354
45.4279,1759.6107
45.4499,1782.3697
45.4719,1782.038
45.4939,1765.4125
45.5159,1690.9097
45.5379,1725.9263
45.5599,1700.2253
45.5819,1637.707
45.6039,1684.3376
45.6259,1703.5985
45.6479,1684.5648
45.6699,1729.2397
45.6919,1701.9928
45.7139,1745.6304
45.7359,1764.9754
45.7579,1734.3361
45.7799,1745.5534
45.8019,1756.6379
45.8239,1753.7097
45.8459,1766.9792
45.8679,1747.0256
45.8899,1789.4811
45.9119,1768.4269
45.9339,1746.0326
45.9559,1782.4868
45.9779,1798.7424
45.9999,1863.4128
46.0219,1950.9118
46.0439,2059.2227
46.0659,2231.1875
46.0879,2471.5525
46.1099,2905.8976
46.1319,3470.3206
46.1539,4080.303
46.1759,3981.3461
46.1979,3283.187
46.2199,2791.6949
46.2419,2669.7914
46.2639,2761.8274
46.2859,2656.1999
46.3079,2202.1451
46.3299,1779.2878
46.3519,1589.4022
46.3739,1518.0441
46.3959,1502.1534
46.4179,1546.9235
46.4399,1563.6588
46.4619,1488.982
46.4839,1464.7168
46.5059,1491.6845
46.5279,1505.6967
46.5499,1444.4334
46.5719,1425.2207
46.5939,1425.8368
46.6159,1430.6534
46.6379,1406.4827
46.6599,1429.8369
46.6819,1452.2862
46.7039,1357.9549
46.7259,1389.7327
46.7479,1411.0044
46.7699,1411.4984
46.7919,1383.5956
46.8139,1438.4869
46.8359,1470.8027
46.8579,1427.3881
46.8799,1367.7849
46.9019,1435.2763
46.9239,1428.5138
46.9459,1446.8057
46.9679,1545.487
46.9899,1505.4497
47.0119,1594.8382
47.0339,1722.0044
47.0559,1859.946
47.0779,2034.0511
47.0999,2352.8905
47.1219,2770.1179
47.1439,2924.4195
47.1659,2644.0575
47.1879,2265.9421
47.2099,2111.1655
47.2319,2186.162
47.2539,2161.3186
47.2759,1882.5536
47.2979,1630.425
47.3199,1466.0402
47.3419,1435.6371
47.3639,1438.7602
47.3859,1436.0696
47.4079,1415.0459
47.4299,1430.4365
47.4519,1404.8406
47.4739,1399.3304
47.4959,1409.1116
47.5179,1391.1385
47.5399,1384.1108
47.5619,1424.6127
47.5839,1430.2698
47.6059,1412.6135
47.6279,1424.8743
47.6499,1410.4983
47.6719,1440.875
47.6939,1494.4012
47.7159,1488.6381
47.7379,1466.6017
47.7599,1450.8604
47.7819,1441.8505
47.8039,1450.86
47.8259,1427.0254
47.8479,1395.7153
47.8699,1384.3186
47.8919,1417.6831
47.9139,1412.4217
47.9359,1380.9601
47.9579,1398.537
47.9799,1350.7327
48.0019,1348.6756
48.0239,1345.3711
48.0459,1390.3424
48.0679,1400.8392
48.0899,1383.6705
48.1119,1382.8324
48.1339,1405.0266
48.1559,1427.6122
48.1779,1411.113
48.1999,1424.7597
48.2219,1365.2495
48.2439,1362.9229
48.2659,1387.1653
48.2879,1357.2727
48.3099,1453.7428
48.3319,1468
48.3539,1364.3073
48.3759,1348.4302
48.3979,1357.2626
48.4199,1406.8045
48.4419,1302.5551
48.4639,1359.6035
48.4859,1325.9094
48.5079,1347.7174
48.5299,1324.9999
48.5519,1291.1107
48.5739,1299.9262
48.5959,1295.8199
48.6179,1266.9667
48.6399,1305.8604
48.6619,1316.4925
48.6839,1285.4302
48.7059,1300.9149
48.7279,1396.5751
48.7499,1367.5145
48.7719,1408.727
48.7939,1373.0825
48.8159,1374.1438
48.8379,1442.6461
48.8599,1482.6995
48.8819,1595.8089
48.9039,1761.4026
48.9259,1842.2565
48.9479,1751.4788
48.9699,1541.0334
48.9919,1525.4497
49.0139,1518.5509
49.0359,1574
49.0579,1562.7904
49.0799,1484.377
49.1019,1354.2584
49.1239,1327.323
49.1459,1337.8506
49.1679,1338.3067
49.1899,1316.7876
49.2119,1312.2379
49.2339,1334.599
49.2559,1354.3701
49.2779,1351.7308
49.2999,1333.8187
49.3219,1291.6816
49.3439,1315.8166
49.3659,1307.3294
49.3879,1324.5297
49.4099,1348.0167
49.4319,1363.6299
49.4539,1354.1886
49.4759,1390.2512
49.4979,1413.7146
49.5199,1437.226
49.5419,1455.5151
49.5639,1512.9435
49.5859,1625.9974
49.6079,1832.623
49.6299,2158.3238
49.6519,2564.7981
49.6739,3321.0379
49.6959,3939.069
49.7179,4040.8847
49.7399,3511.6953
49.7619,2894.875
49.7839,2650.7371
49.8059,2731.6358
49.8279,2705.2076
49.8499,2391.8628
49.8719,1971.3529
49.8939,1660.0088
49.9159,1526.3094
49.9379,1453.2957
49.9599,1411.8366
49.9819,1478.0092
50.0039,1464.5303
50.0259,1381.9426
50.0479,1395.8349
50.0699,1351.0981
50.0919,1333.4006
50.1139,1332.885
50.1359,1446.9508
50.1579,1339.031
50.1799,1382.31
50.2019,1282.3781
50.2239,1326.1064
50.2459,1269.5602
50.2679,1267.971
50.2899,1288.649
50.3119,1218.3139
50.3339,1292.638
50.3559,1247.1815
50.3779,1254.0204
50.3999,1198.0873
50.4219,1264.3992
50.4439,1266.7712
50.4659,1208.0412
50.4879,1185.7183
50.5099,1191.8145
50.5319,1260.7865
50.5539,1221.2153
50.5759,1209.2756
50.5979,1184.2255
50.6199,1267.6706
50.6419,1251.386
50.6639,1181.0314
50.6859,1265.7041
50.7079,1266.6546
50.7299,1209.4986
50.7519,1239.5872
50.7739,1254.4362
50.7959,1210.9487
50.8179,1256.5387
50.8399,1250.5961
50.8619,1283.8858
50.8839,1237.0912
50.9059,1195.3451
50.9279,1217.4413
50.9499,1250.3273
50.9719,1225.9071
50.9939,1205.1699
51.0159,1199.278
51.0379,1243.0118
51.0599,1240.7305
51.0819,1205.1571
51.1039,1186.1417
51.1259,1203.9007
51.1479,1198.9857
51.1699,1209.0975
51.1919,1209.9728
51.2139,1189.5015
51.2359,1205.4013
51.2579,1201.0362
51.2799,1183.6092
51.3019,1178.9646
51.3239,1175.6829
51.3459,1129.4195
51.3679,1157.2394
51.3899,1193.0324
51.4119,1159.5441
51.4339,1171.8763
51.4559,1177.9404
51.4779,1180.0581
51.4999,1176.4292
51.5219,1126.3321
51.5439,1155.9747
51.5659,1149.3686
51.5879,1138.1254
51.6099,1166.3885
51.6319,1171.8687
51.6539,1170.7453
51.6759,1152.0594
51.6979,1187.5754
51.7199,1171.8406
51.7419,1168.767
51.7639,1174.8407
51.7859,1130.1315
51.8079,1206.4626
51.8299,1147.2268
51.8519,1157.8226
51.8739,1159.3953
51.8959,1168.6859
51.9179,1160.1789
51.9399,1146.3284
51.9619,1168.8526
51.9839,1158.9139
52.0059,1139.1602
52.0279,1121.7772
52.0499,1192.5264
52.0719,1155.8455
52.0939,1112.3804
52.1159,1182.1309
52.1379,1219.9685
52.1599,1219.3734
52.1819,1262.6456
52.2039,1160.7887
52.2259,1193.3245
52.2479,1193.986
52.2699,1152.0848
52.2919,1210.7432
52.3139,1180.175
52.3359,1167.0108
52.3579,1171.7816
52.3799,1163.8866
52.4019,1195.0412
52.4239,1187.8083
52.4459,1207.3856
52.4679,1234.7999
52.4899,1212.1235
52.5119,1144.0317
52.5339,1200.1378
52.5559,1226.2786
52.5779,1199.0925
52.5999,1226.3602
52.6219,1252.3831
52.6439,1179.2827
52.6659,1197.5645
52.6879,1231.3364
52.7099,1240.2585
52.7319,1210.1337
52.7539,1231.5903
52.7759,1274.0903
52.7979,1231.3164
52.8199,1212.0606
52.8419,1253.1349
52.8639,1267.8372
52.8859,1267.9735
52.9079,1285.0133
52.9299,1281.2939
52.9519,1313.816
52.9739,1353.3097
52.9959,1334.5933
53.0179,1296.5868
53.0399,1280.9524
53.0619,1334.5569
53.0839,1395.9471
53.1059,1400.9733
53.1279,1414.5975
53.1499,1436.3245
53.1719,1425.5383
53.1939,1486.0506
53.2159,1569.3159
53.2379,1635.2294
53.2599,1715.9045
53.2819,1776.4692
53.3039,1783.3269
53.3259,1721.9259
53.3479,1701.2257
53.3699,1680.7668
53.3919,1681.7449
53.4139,1621.8816
53.4359,1629.8591
53.4579,1565.68
53.4799,1496.6015
53.5019,1458.111
53.5239,1471.5419
53.5459,1517.9206
53.5679,1534.5172
53.5899,1608.7713
53.6119,1758.2779
53.6339,1874.262
53.6559,2054.1257
53.6779,2249.9654
53.6999,2576.0565
53.7219,2539.2425
53.7439,2332.8826
53.7659,1905.0287
53.7879,1810.1207
53.8099,1862.9914
53.8319,1865.0379
53.8539,1840.639
53.8759,1589.3706
53.8979,1477.1067
53.9199,1350.5023
53.9419,1306.1739
53.9639,1272.0359
53.9859,1271.6508
54.0079,1246.6329
54.0299,1273.8192
54.0519,1291.4712
54.0739,1233.1682
54.0959,1243.7807
54.1179,1234.0745
54.1399,1191.0934
54.1619,1279.3628
54.1839,1263.5236
54.2059,1254.6695
54.2279,1217.9482
54.2499,1192.7611
54.2719,1203.7434
54.2939,1216.4582
54.3159,1205.1862
54.3379,1189.1829
54.3599,1193.0859
54.3819,1188.9324
54.4039,1220.9011
54.4259,1196.2417
54.4479,1164.8826
54.4699,1186.5929
54.4919,1187.0221
54.5139,1190.9519
54.5359,1203.9572
54.5579,1183.8062
54.5799,1152.4182
54.6019,1121.115
54.6239,1145.9886
54.6459,1189.7462
54.6679,1181.4292
54.6899,1219.5274
54.7119,1223.89
54.7339,1177.1269
54.7559,1195.916
54.7779,1200.1867
54.7999,1143.2253
54.8219,1141.3111
54.8439,1170.3391
54.8659,1149.8229
54.8879,1175.1271
54.9099,1209.3373
54.9319,1199.4291
54.9539,1211.5597
54.9759,1205.1513
54.9979,1186.3186
55.0199,1163.9723
55.0419,1159.0197
55.0639,1174.0576
55.0859,1188.6156
55.1079,1168.0239
55.1299,1180.7435
55.1519,1193.3992
55.1739,1251.6641
55.1959,1198.2355
55.2179,1181.5202
55.2399,1211.4584
55.2619,1202.4955
55.2839,1167.6124
55.3059,1213.9954
55.3279,1242.565
55.3499,1206.2987
55.3719,1234.0135
55.3939,1229.4778
55.4159,1201.5869
55.4379,1195.2812
55.4599,1203.7169
55.4819,1161.6851
55.5039,1170.3403
55.5259,1213.7937
55.5479,1143.4112
55.5699,1257.3752
55.5919,1166.7296
55.6139,1232.8292
55.6359,1189.4393
55.6579,1136.9201
55.6799,1223.5245
55.7019,1192.8209
55.7239,1166.1562
55.7459,1125.3917
55.7679,1196.812
55.7899,1150.7936
55.8119,1180.4533
55.8339,1175.4996
55.8559,1198.3316
55.8779,1142.8948
55.8999,1142
55.9219,1139.0147
55.9439,1118.0054
55.9659,1119.5646
55.9879,1153.8331
56.0099,1112.4522
56.0319,1101.344
56.0539,1166.2744
56.0759,1178.2516
56.0979,1155.525
56.1199,1128.1046
56.1419,1100.7581
56.1639,1121.02
56.1859,1174.0502
56.2079,1166.073
56.2299,1136.358
56.2519,1147.9468
56.2739,1159.6248
56.2959,1224.2576
56.3179,1202.7137
56.3399,1192.7165
56.3619,1242.0446
56.3839,1266.4408
56.4059,1219.1926
56.4279,1226.6994
56.4499,1254.5574
56.4719,1234.5629
56.4939,1251.5252
56.5159,1299.7761
56.5379,1334.7916
56.5599,1293.7798
56.5819,1252.9794
56.6039,1238.0347
56.6259,1189.7982
56.6479,1174.6372
56.6699,1183
56.6919,1212.1192
56.7139,1209.8199
56.7359,1195.6765
56.7579,1181.6911
56.7799,1150.5072
56.8019,1158.5075
56.8239,1146.2845
56.8459,1094.5307
56.8679,1091.1161
56.8899,1093.9646
56.9119,1088.9513
56.9339,1122.7593
56.9559,1114.6532
56.9779,1103.5605
56.9999,1095.6794
57.0219,1112.3531
57.0439,1084.1945
57.0659,1056.0835
57.0879,1029.1257
57.1099,1046.8054
57.1319,1111.018
57.1539,1087.3675
57.1759,1087.3039
57.1979,1145.4595
57.2199,1137.1907
57.2419,1100.1768
57.2639,1087.9636
57.2859,1137.8351
57.3079,1125.0132
57.3299,1122.0836
57.3519,1140.5743
57.3739,1145.764
57.3959,1119.3076
57.4179,1137.3118
57.4399,1128.2212
57.4619,1107.2064
57.4839,1203.7931
57.5059,1120.7524
57.5279,1172.8661
57.5499,1235.083
57.5719,1115.5163
57.5939,1127.6206
57.6159,1166.6097
57.6379,1172.6725
57.6599,1155.6739
57.6819,1130.4102
57.7039,1172.397
57.7259,1216.8415
57.7479,1182.047
57.7699,1240.7847
57.7919,1267.9774
57.8139,1351.6922
57.8359,1348.7877
57.8579,1364.0168
57.8799,1353.7217
57.9019,1271.8998
57.9239,1275.6064
57.9459,1257.1421
57.9679,1311.6235
57.9899,1219.4765
58.0119,1160.9745
58.0339,1164.5929
58.0559,1156.0339
58.0779,1137.6183
58.0999,1107.7729
58.1219,1098.285
58.1439,1101.3243
58.1659,1146.0147
58.1879,1170.8494
58.2099,1228.7533
58.2319,1218.5617
58.2539,1173.4246
58.2759,1161.8988
58.2979,1167.056
58.3199,1164.2257
58.3419,1164.6637
58.3639,1167.9057
58.3859,1172.9616
58.4079,1155.9955
58.4299,1151.4956
58.4519,1179.6442
58.4739,1252.0004
58.4959,1260.7932
58.5179,1252.5645
58.5399,1357.2347
58.5619,1398.2299
58.5839,1379.6809
58.6059,1329.802
58.6279,1321.8895
58.6499,1365.6944
58.6719,1432.9635
58.6939,1455.9646
58.7159,1434.2772
58.7379,1454.5282
58.7599,1507.0593
58.7819,1600.1293
58.8039,1893.8935
58.8259,2249.5237
58.8479,2884.9167
58.8699,4098.0179
58.8919,6058.2455
58.9139,7798.6347
58.9359,8279.4797
58.9579,6835.0479
58.9799,4850.6827
59.0019,3917.3084
59.0239,3892.8323
59.0459,4462.5811
59.0679,4731.0201
59.0899,4234.9679
59.1119,3106.3113
59.1339,2154.5002
59.1559,1631.694
59.1779,1406.4809
59.1999,1311.4175
59.2219,1154.194
59.2439,1203.2303
59.2659,1222.9627
59.2879,1190.3305
59.3099,1222.7012
59.3319,1254.8852
59.3539,1306.528
59.3759,1293.3114
59.3979,1238.0149
59.4199,1278.6815
59.4419,1299.9874
59.4639,1328.2173
59.4859,1328.6696
59.5079,1323.1304
59.5299,1353.3472
59.5519,1351.3784
59.5739,1240.9333
59.5959,1266.0944
59.6179,1261.0706
59.6399,1229.7283
59.6619,1240.4675
59.6839,1162.6729
59.7059,1197.7597
59.7279,1133.2069
59.7499,1127.7316
59.7719,1133.4568
59.7939,1140.3302
59.8159,1117.3053
59.8379,1120.8584
59.8599,1143.8247
59.8819,1161.2328
59.9039,1131.4813
59.9259,1126.464
59.9479,1135.018
59.9699,1153.3016
59.9919,1114.7709
60.0139,1129.9648
60.0359,1169.5621
60.0579,1197.3344
60.0799,1217.0753
60.1019,1248.0455
60.1239,1310.9398
60.1459,1339.6548
60.1679,1299.3719
60.1899,1191.4034
60.2119,1155.8056
60.2339,1173.99
60.2559,1138.8523
60.2779,1126.1977
60.2999,1148.2715
60.3219,1128.0715
60.3439,1079.7874
60.3659,1055.0363
60.3879,1078.7446
60.4099,1028.4597
60.4319,1015.3291
60.4539,1008.4856
60.4759,1005.4145
60.4979,1021.3541
60.5199,1018.6165
60.5419,949.5954
60.5639,988.0889
60.5859,983.58
60.6079,967.7655
60.6299,1004.0042
60.6519,985.105
60.6739,938.3361
60.6959,947.127
60.7179,904.2544
60.7399,914.36
60.7619,954.8547
60.7839,989.0759
60.8059,938.2032
60.8279,866.3094
60.8499,898.5007
60.8719,955.9265
60.8939,925.697
60.9159,957.8748
60.9379,956.3392
60.9599,909.722
60.9819,995.9768
61.0039,938.951
61.0259,963.4957
61.0479,972.9425
61.0699,904.124
61.0919,925.9644
61.1139,974.555
61.1359,866.4972
61.1579,902.6984
61.1799,952.7048
61.2019,1001.2919
61.2239,974.9649
61.2459,1014.5148
61.2679,927.1738
61.2899,894.9798
61.3119,972.6135
61.3339,954.7611
61.3559,976.9589
61.3779,999.7194
61.3999,943
61.4219,941.1769
61.4439,943.0238
61.4659,978.0443
61.4879,976.8592
61.5099,943.4482
61.5319,923.3761
61.5539,949.3415
61.5759,994.8052
61.5979,975.9822
61.6199,968.89
61.6419,997.3443
61.6639,989.1971
61.6859,934.4024
61.7079,965.8988
61.7299,972.4985
61.7519,985.834
61.7739,996.6125
61.7959,993.1726
61.8179,1009.6284
61.8399,1024.3609
61.8619,1017.4453
61.8839,979.8877
61.9059,984.7427
61.9279,984.5469
61.9499,944.5172
61.9719,974.6493
61.9939,984.0263
62.0159,1010.0289
62.0379,1016.0105
62.0599,993.149
62.0819,983.7177
62.1039,981.7538
62.1259,972.5072
62.1479,966.8653
62.1699,999.7819
62.1919,1038.8807
62.2139,1018.748
62.2359,968.7908
62.2579,959.3658
62.2799,965.0457
62.3019,963.9174
62.3239,1005.3897
62.3459,969.0911
62.3679,992.5957
62.3899,1014.2036
62.4119,1018.267
62.4339,1018.2321
62.4559,970.4053
62.4779,1010.8922
62.4999,1014.5373
62.5219,999.7433
62.5439,997.8294
62.5659,1012.3088
62.5879,956.9289
62.6099,968.657
62.6319,1050.1927
62.6539,1054.764
62.6759,1029.6149
62.6979,997.7058
62.7199,997.7832
62.7419,943.4786
62.7639,1008.5667
62.7859,998.4955
62.8079,1026.33
62.8299,1028.9784
62.8519,978.0888
62.8739,1037.8347
62.8959,1026.834
62.9179,1054.74
62.9399,977.2035
62.9619,1052.2868
62.9839,997.0752
63.0059,1000.713
63.0279,1025.3071
63.0499,996.3719
63.0719,1033.239
63.0939,1045.993
63.1159,1010.4641
63.1379,944.5436
63.1599,1076.6859
63.1819,1003.2744
63.2039,1021.2075
63.2259,1022.6294
63.2479,1040.4454
63.2699,1037.0648
63.2919,1034.3542
63.3139,1082.2686
63.3359,1089.9496
63.3579,1069.4929
63.3799,1102.146
63.4019,1074.1659
63.4239,1050.2997
63.4459,1093.0001
63.4679,1106.5301
63.4899,1115.5683
63.5119,1101.8937
63.5339,1076.4975
63.5559,1070.3427
63.5779,1083.5134
63.5999,1112.2913
63.6219,1169.6483
63.6439,1208.6681
63.6659,1183.2751
63.6879,1152.1888
63.7099,1169.6757
63.7319,1178.1926
63.7539,1177.6462
63.7759,1195.1416
63.7979,1196.35
63.8199,1173.9354
63.8419,1155.3363
63.8639,1184.044
63.8859,1178.6212
63.9079,1207.6818
63.9299,1211.8129
63.9519,1185.2236
63.9739,1224.9826
63.9959,1278.5464
64.0179,1314.893
64.0399,1260.8107
64.0619,1263.2294
64.0839,1294.4854
64.1059,1279.2358
64.1279,1279.2867
64.1499,1283
64.1719,1248.2697
64.1939,1263.0444
64.2159,1273.5271
64.2379,1246.8464
64.2599,1248.4573
64.2819,1222.1857
64.3039,1301.9578
64.3259,1303.0255
64.3479,1309.0473
64.3699,1174.2204
64.3919,1251.6987
64.4139,1334.435
64.4359,1284.6088
64.4579,1261.7216
64.4799,1228.1144
64.5019,1249.9293
64.5239,1364.272
64.5459,1449.7271
64.5679,1537.5358
64.5899,1661.5867
64.6119,1865.8919
64.6339,2167.1195
64.6559,2303.7571
64.6779,2489.7836
64.6999,2469.1429
64.7219,2151.2183
64.7439,1959.7022
64.7659,1795.9116
64.7879,1826.401
64.8099,1892.1999
64.8319,1946.1546
64.8539,1894.9632
64.8759,1784.639
64.8979,1583.038
64.9199,1516.9824
64.9419,1443.4483
64.9639,1431.9869
64.9859,1442.7282
65.0079,1380.5621
65.0299,1406.1476
65.0519,1411.0848
65.0739,1372.4138
65.0959,1349.8967
65.1179,1354.7919
65.1399,1426.3445
65.1619,1483.8498
65.1839,1544.5202
65.2059,1627.1979
65.2279,1665.2626
65.2499,1659.9634
65.2719,1583.3991
65.2939,1497.4395
65.3159,1467.2907
65.3379,1439.834
65.3599,1463.4027
65.3819,1465.2449
65.4039,1466.1455
65.4259,1409.1793
65.4479,1302.7577
65.4699,1241.8995
65.4919,1253.872
65.5139,1247.4833
65.5359,1223.5405
65.5579,1249.1328
65.5799,1236.1306
65.6019,1221.6136
65.6239,1236.7538
65.6459,1212.5661
65.6679,1187.8737
65.6899,1191.1741
65.7119,1214.774
65.7339,1185.3526
65.7559,1170.1019
65.7779,1164.64
65.7999,1216.6603
65.8219,1246.3569
65.8439,1156.1557
65.8659,1122.595
65.8879,1191.881
65.9099,1175.274
65.9319,1173.6112
65.9539,1171.1858
65.9759,1164.266
65.9979,1195.6413
66.0199,1148.1456
66.0419,1164.6984
66.0639,1123.8537
66.0859,1109.3835
66.1079,1147.5661
66.1299,1200.9737
66.1519,1144.9244
66.1739,1114.1366
66.1959,1131.0036
66.2179,1160.4603
66.2399,1171.1544
66.2619,1207.3571
66.2839,1230.2966
66.3059,1271.1094
66.3279,1247.5829
66.3499,1223.0618
66.3719,1297.5078
66.3939,1173.5362
66.4159,1203.7568
66.4379,1148.2707
66.4599,1202.9311
66.4819,1198.2329
66.5039,1172.7492
66.5259,1167.7031
66.5479,1180.9293
66.5699,1191.7973
66.5919,1162.4526
66.6139,1124.109
66.6359,1116.2156
66.6579,1234.1941
66.6799,1143.363
66.7019,1174.0593
66.7239,1209.5765
66.7459,1110.9559
66.7679,1129.6464
66.7899,1112.411
66.8119,1125.4854
66.8339,1167.2481
66.8559,1200.0237
66.8779,1141.7285
66.8999,1139.2015
66.9219,1187.2182
66.9439,1183.217
66.9659,1179.5098
66.9879,1120.3611
67.0099,1137.398
67.0319,1126.1965
67.0539,1164.6981
67.0759,1151.1842
67.0979,1110.0539
67.1199,1087.3157
67.1419,1098.9647
67.1639,1085.1368
67.1859,1057.302
67.2079,1061.2978
67.2299,1046.4208
67.2519,1064.9845
67.2739,1092.944
67.2959,1048.9626
67.3179,989.0825
67.3399,972.4203
67.3619,975.296
67.3839,1001.2037
67.4059,981.982
67.4279,975.4368
67.4499,1021.3749
67.4719,1004.7135
67.4939,1011.9089
67.5159,1039.2503
67.5379,1076.6906
67.5599,1089.7871
67.5819,1052.1531
67.6039,1047.7833
67.6259,1019.5622
67.6479,1034.6846
67.6699,1002.861
67.6919,1033.5024
67.7139,1069.3561
67.7359,1032.6546
67.7579,1031.8477
67.7799,990.2101
67.8019,1007.2126
67.8239,1059.8592
67.8459,1021.3409
67.8679,1011.2154
67.8899,964.6644
67.9119,979.6811
67.9339,1001.8143
67.9559,1007.559
67.9779,975.9841
67.9999,1014.0017
68.0219,1059.1546
68.0439,1023.4024
68.0659,996.1385
68.0879,983.8057
68.1099,1050.611
68.1319,992.212
68.1539,982.2546
68.1759,976.1445
68.1979,997.7405
68.2199,1048.007
68.2419,1061.4757
68.2639,1020.0219
68.2859,982.71
68.3079,1001.5463
68.3299,1008.4068
68.3519,956.747
68.3739,990.0481
68.3959,983.3601
68.4179,1008.7775
68.4399,969.9618
68.4619,988.1503
68.4839,970.592
68.5059,978.3276
68.5279,1023.2617
68.5499,1118.3536
68.5719,1064.437
68.5939,1036.1972
68.6159,978.5346
68.6379,1010.5958
68.6599,1019.5475
68.6819,1035.9149
68.7039,983.5048
68.7259,1033.1681
68.7479,1010.044
68.7699,980.6177
68.7919,999.3599
68.8139,987.3646
68.8359,968.4125
68.8579,980.8526
68.8799,996.1077
68.9019,982.3577
68.9239,960.9381
68.9459,961.7207
68.9679,962.3679
68.9899,960.2181
69.0119,953.5173
69.0339,1013.9819
69.0559,1032.5306
69.0779,967.0076
69.0999,951.8271
69.1219,997.3013
69.1439,1022.2157
69.1659,1001.3037
69.1879,999.2022
69.2099,995.9281
69.2319,995.4883
69.2539,1028.0179
69.2759,1055.857
69.2979,1079.48
69.3199,1025.1897
69.3419,969.5712
69.3639,993.6212
69.3859,1056.3308
69.4079,1060.7378
69.4299,977.9375
69.4519,1004.9916
69.4739,1019.6793
69.4959,1015.4268
69.5179,971.7342
69.5399,985.9943
69.5619,993.999
69.5839,998.3378
69.6059,961.2583
69.6279,989.3562
69.6499,956.8316
69.6719,984.1502
69.6939,969.1041
69.7159,969.0177
69.7379,932.6625
69.7599,944.0783
69.7819,984.546
69.8039,982.0309
69.8259,973.818
69.8479,916.5778
69.8699,926.6795
69.8919,997.1617
69.9139,909.203
69.9359,960.5927
69.9579,963.9715
69.9799,949.2433
70.0019,942.0275
70.0239,1043.6655
70.0459,1004.8675
70.0679,1043.3973
70.0899,966.8643
70.1119,964
70.1339,961.6262
70.1559,935.7477
70.1779,1000.6608
70.1999,999.6383
70.2219,943.1163
70.2439,978.112
70.2659,961.1535
70.2879,971.6622
70.3099,961.6904
70.3319,975.9022
70.3539,985.2037
70.3759,992.2385
70.3979,931.523
70.4199,937.5978
70.4419,1000.2419
70.4639,1015.2343
70.4859,1037.8138
70.5079,1002.5623
70.5299,1056.7317
70.5519,1056.1589
70.5739,1006.6313
70.5959,1014.8865
70.6179,1029
70.6399,1048.7407
70.6619,1055.8157
70.6839,1040.4469
70.7059,1099.7788
70.7279,1119.4771
70.7499,1219.4444
70.7719,1375.2824
70.7939,1472.4359
70.8159,1642.5066
70.8379,2009.1469
70.8599,2521.9261
70.8819,3131.4813
70.9039,3706.5029
70.9259,3811.7495
70.9479,3316.7722
70.9699,2687.3153
70.9919,2236.5198
71.0139,2017.0101
71.0359,2048.3578
71.0579,2251.134
71.0799,2400.0551
71.1019,2418.5131
71.1239,2179.3898
71.1459,1807.2438
71.1679,1461.2681
71.1899,1268.1449
71.2119,1175.5777
71.2339,1137.6813
71.2559,1089.5036
71.2779,1067.4552
71.2999,987.3844
71.3219,1071.4315
71.3439,1051.8422
71.3659,1042.3718
71.3879,1040.6071
71.4099,1017.0844
71.4319,987.9453
71.4539,1028.8223
71.4759,987.5473
71.4979,956.8671
71.5199,1002.8051
71.5419,1010.2871
71.5639,1024.7685
71.5859,954.7557
71.6079,970.9063
71.6299,992.1122
71.6519,1012.358
71.6739,1013.0698
71.6959,1016.7699
71.7179,1055.191
71.7399,1061.8353
71.7619,939.5804
71.7839,1001.4571
71.8059,985.7637
71.8279,927.3471
71.8499,1008.7433
71.8719,1000.7346
71.8939,1013.38
71.9159,935.5776
71.9379,1003.0975
71.9599,1029.2597
71.9819,1034.9436
72.0039,978.0406
72.0259,1011.2918
72.0479,969.4955
72.0699,951.4257
72.0919,938.9647
72.1139,950.7601
72.1359,962.2012
72.1579,970.9851
72.1799,953.7675
72.2019,969.1791
72.2239,982.2506
72.2459,975.7416
72.2679,997.5451
72.2899,1006.673
72.3119,1048.2352
72.3339,1011.6903
72.3559,1007.4187
72.3779,999.5283
72.3999,1039.3875
72.4219,1039.7284
72.4439,1022.3699
72.4659,1060.9876
72.4879,1089.9158
72.5099,1080.9725
72.5319,1069.7992
72.5539,1051.7494
72.5759,1065.3413
72.5979,1078.1427
72.6199,1094.3393
72.6419,1097.348
72.6639,1085.2005
72.6859,1068.0972
72.7079,1047.3504
72.7299,1043.7218
72.7519,1092.6612
72.7739,1109.2102
72.7959,1050.8934
72.8179,1080.4873
72.8399,1097.9191
72.8619,1094.2234
72.8839,1116.3054
72.9059,1116.8151
72.9279,1136.339
72.9499,1132.637
72.9719,1111.2034
72.9939,1179.1098
73.0159,1203.081
73.0379,1139.5443
73.0599,1199.9525
73.0819,1188.6899
73.1039,1183.8531
73.1259,1183.0688
73.1479,1215.6699
73.1699,1200.1906
73.1919,1213.7917
73.2139,1196.283
73.2359,1158.6886
73.2579,1119.2092
73.2799,1230.3238
73.3019,1229.8081
73.3239,1219.0358
73.3459,1191.2063
73.3679,1199.2724
73.3899,1216.1112
73.4119,1219.8024
73.4339,1232.7887
73.4559,1297.878
73.4779,1307.6903
73.4999,1271.8867
73.5219,1278.6638
73.5439,1279.9749
73.5659,1355.029
73.5879,1369.9932
73.6099,1429.4924
73.6319,1389.1687
73.6539,1475.7628
73.6759,1444.0709
73.6979,1468.3533
73.7199,1518.315
73.7419,1496.3156
73.7639,1490.5655
73.7859,1506.7621
73.8079,1524.4279
73.8299,1537.5492
73.8519,1480.4648
73.8739,1555.7692
73.8959,1459.8101
73.9179,1493.2442
73.9399,1427.4592
73.9619,1498.5831
73.9839,1475.1454
74.0059,1384.4834
74.0279,1350.0587
74.0499,1384.8644
74.0719,1376.566
74.0939,1340.6503
74.1159,1366.2135
74.1379,1315.2623
74.1599,1300.5724
74.1819,1333.9235
74.2039,1356.907
74.2259,1359.5429
74.2479,1390.0981
74.2699,1423.6107
74.2919,1421.0725
74.3139,1438.917
74.3359,1467.2768
74.3579,1384.7566
74.3799,1351.2377
74.4019,1387.5371
74.4239,1323.3495
74.4459,1271.6613
74.4679,1265.9197
74.4899,1211.9931
74.5119,1222.862
74.5339,1214.4629
74.5559,1145.1292
74.5779,1083.869
74.5999,1100.5047
74.6219,1136.1211
74.6439,1112.5783
74.6659,1058.1059
74.6879,1043.7547
74.7099,1036.7256
74.7319,1044.6889
74.7539,987.906
74.7759,1015.3437
74.7979,1024.0322
74.8199,1026.7563
74.8419,1041.4013
74.8639,1024.3405
74.8859,1041.364
74.9079,1020.047
74.9299,1042.7171
74.9519,996.883
74.9739,1006.8586
74.9959,1042.515
75.0179,1002.8925
75.0399,1023.4289
75.0619,1004.6635
75.0839,974.7761
75.1059,994.5803
75.1279,970.6237
75.1499,999.1428
75.1719,998.6932
75.1939,924.4656
75.2159,1000.5418
75.2379,1010.8427
75.2599,973.6546
75.2819,995.5941
75.3039,1003.7075
75.3259,1037.9678
75.3479,981.0149
75.3699,1026.7692
75.3919,993.369
75.4139,1041.8787
75.4359,984.9772
75.4579,956.434
75.4799,1011.9969
75.5019,1058.627
75.5239,1016.4885
75.5459,1053.8514
75.5679,1032.0486
75.5899,1021.994
75.6119,1010.3876
75.6339,1031.8593
75.6559,1023.9159
75.6779,1015.8269
75.6999,1002.8465
75.7219,1016.5848
75.7439,1102.1255
75.7659,1045.1877
75.7879,1044.602
75.8099,1085.191
75.8319,1125.4325
75.8539,1161.0972
75.8759,1161.4449
75.8979,1211.4199
75.9199,1223.9088
75.9419,1286.5217
75.9639,1356.5964
75.9859,1358.9114
76.0079,1293.1067
76.0299,1168.8984
76.0519,1149.3012
76.0739,1146.5393
76.0959,1103.4111
76.1179,1108.0442
76.1399,1119.7122
76.1619,1147.6254
76.1839,1139.7535
76.2059,1132.4701
76.2279,1098.2492
76.2499,1029.1236
76.2719,995.0195
76.2939,985.5113
76.3159,982.3348
76.3379,987.0384
76.3599,970.428
76.3819,946.5162
76.4039,928.6808
76.4259,919.7552
76.4479,902.4821
76.4699,897.3157
76.4919,910.0851
76.5139,901.6813
76.5359,875.8976
76.5579,854.8003
76.5799,874.5017
76.6019,899.301
76.6239,895.9562
76.6459,901.9116
76.6679,869.2667
76.6899,895.2904
76.7119,863.8197
76.7339,897.2138
76.7559,938.3911
76.7779,909.2593
76.7999,858.5056
76.8219,914.1165
76.8439,892.3449
76.8659,829.1618
76.8879,803.6661
76.9099,944.7178
76.9319,924.7445
76.9539,889.8385
76.9759,934.1862
76.9979,936.3815
77.0199,876.4003
77.0419,875.646
77.0639,917.426
77.0859,898.0628
77.1079,921.1521
77.1299,882.865
77.1519,867.14
77.1739,925.7901
77.1959,856.2045
77.2179,931.6868
77.2399,852.7084
77.2619,919.6157
77.2839,948.2271
77.3059,939.838
77.3279,973.733
77.3499,967.0499
77.3719,935.0665
77.3939,952.4549
77.4159,914.5987
77.4379,961.8496
77.4599,961.4882
77.4819,967.1506
77.5039,968.5128
77.5259,911.3973
77.5479,919.7547
77.5699,935.8291
77.5919,951.9797
77.6139,933.7757
77.6359,939.9297
77.6579,976.3042
77.6799,902.5726
77.7019,883.3391
77.7239,898.8516
77.7459,950.4216
77.7679,926.0089
77.7899,934.1653
77.8119,941.6406
77.8339,937.2831
77.8559,917.5608
77.8779,909.4732
77.8999,909.572
77.9219,894.309
77.9439,923.096
77.9659,922.9733
77.9879,888.3178
78.0099,886.1507
78.0319,922.0577
78.0539,910.7647
78.0759,883.4656
78.0979,936.0331
78.1199,1007.1959
78.1419,1009.7747
78.1639,1046.4887
78.1859,1066.1079
78.2079,1017.3231
78.2299,988.2566
78.2519,945.0556
78.2739,912.2074
78.2959,871.4716
78.3179,872.4732
78.3399,909.2121
78.3619,945.3335
78.3839,972.6162
78.4059,952.3498
78.4279,913.2653
78.4499,925.6226
78.4719,916.7968
78.4939,907.0383
78.5159,889.4404
78.5379,905.42
78.5599,884.7948
78.5819,896.7396
78.6039,916.4337
78.6259,905.345
78.6479,931.7524
78.6699,1011.8098
78.6919,947.7044
78.7139,921.0501
78.7359,969.786
78.7579,995.6461
78.7799,974.5947
78.8019,953.7501
78.8239,930.7299
78.8459,886.8316
78.8679,951.4051
78.8899,927.1119
78.9119,975.6714
78.9339,939.5229
78.9559,956.9736
78.9779,912.1948
78.9999,930.208
79.0219,936.8403
79.0439,879.8124
79.0659,915.7601
79.0879,906.7237
79.1099,841.1988
79.1319,867.6152
79.1539,890.3627
79.1759,877.2429
79.1979,876.994
79.2199,862.8318
79.2419,857.1082
79.2639,866.4121
79.2859,881.3539
79.3079,877.9038
79.3299,893.3776
79.3519,883.9674
79.3739,858.7679
79.3959,868.2628
79.4179,898.9734
79.4399,886.8562
79.4619,861.4375
79.4839,850.6075
79.5059,847.2659
79.5279,869.6874
79.5499,844.4842
79.5719,883.9439
79.5939,877.5152
79.6159,886.5887
79.6379,903.5476
79.6599,909.4575
79.6819,915.6015
79.7039,856.1844
79.7259,841.7241
79.7479,880.441
79.7699,879.1868
79.7919,885.8462
79.8139,913.6816
79.8359,937.9017
79.8579,908.8324
79.8799,888.3836
79.9019,921.5548
79.9239,921.6625
79.9459,925.307
79.9679,894.1947
79.9899,877.5912
